sample,ch1_filtered_mV,ch1_rectified_mV,ch1_rms_mV,ch1_raw_mV
2900,0.006269182792166449,0.006269182792166449,0.00679634614075195,17.563
2901,0.004791093021805923,0.004791093021805923,0.0068118814237207595,17.563
2902,0.004475104779091857,0.004475104779091857,0.006820214376927337,17.564
2903,0.0008274034598399291,0.0008274034598399291,0.006801834319129997,17.561
2904,-0.00039565300298632575,0.00039565300298632575,0.0067359655316265015,17.56
2905,-0.0029970673299403528,0.0029970673299403528,0.006706138786675245,17.557
2906,-0.004157903341567703,0.004157903341567703,0.006694963390908772,17.555
2907,-0.0014267242909927385,0.0014267242909927385,0.006681272619103304,17.557
2908,-0.002394822065465336,0.002394822065465336,0.006664522456818478,17.555
2909,-0.005793867418346246,0.005793867418346246,0.0066847820869348155,17.55
2910,-0.005215287111035459,0.005215287111035459,0.006703434806713352,17.549
2911,-0.004755119339166891,0.004755119339166891,0.006718914369362944,17.548
2912,-0.001822783491106315,0.001822783491106315,0.006705591960290396,17.55
2913,-0.0012000290101022637,0.0012000290101022637,0.006666692587570255,17.55
2914,-0.0008819165731690879,0.0008819165731690879,0.006631299805252747,17.55
2915,0.0026852904472338956,0.0026852904472338956,0.006612987463703917,17.554
2916,-0.003259912849543885,0.003259912849543885,0.006582970201906222,17.548
2917,-0.003390499943978015,0.003390499943978015,0.006573589493253159,17.548
2918,0.003407411377527816,0.003407411377527816,0.006582307816569051,17.556
2919,0.006634515491168099,0.006634515491168099,0.006615165485253685,17.561
2920,0.0050318822121951726,0.0050318822121951726,0.006629265469386848,17.561
2921,0.005455117902781047,0.005455117902781047,0.006633943557322387,17.563
2922,0.006852429847029395,0.006852429847029395,0.006651000661245055,17.566
2923,0.004749703439409843,0.004749703439409843,0.006643112143385194,17.565
2924,0.002267137957320929,0.002267137957320929,0.006636530525653625,17.563
2925,-0.0005294640771689408,0.0005294640771689408,0.0066308800894161034,17.56
2926,-0.005378453241493607,0.005378453241493607,0.0066497253383336905,17.554
2927,-0.005880894446043963,0.005880894446043963,0.006671999775922079,17.552
2928,-0.005278073865819247,0.005278073865819247,0.006680709501746028,17.551
2929,-0.0020177882411939237,0.0020177882411939237,0.006667885529068792,17.553
2930,-0.0009307869107380278,0.0009307869107380278,0.0066560661717342505,17.553
2931,-0.0009560217740685502,0.0009560217740685502,0.006619835116132593,17.552
2932,0.0015021408365260666,0.0015021408365260666,0.006586653629215535,17.554
2933,-0.00010161255997740879,0.00010161255997740879,0.00654515583422333,17.552
2934,-0.0008891272130965733,0.0008891272130965733,0.006517492480947669,17.551
2935,0.0016846680358138554,0.0016846680358138554,0.006515736998740826,17.554
2936,0.0028104805474847457,0.0028104805474847457,0.006517062316658195,17.556
2937,0.003590737961667404,0.003590737961667404,0.006526938595879594,17.558
2938,0.002365131133301381,0.002365131133301381,0.006521043829092255,17.558
2939,0.00034138009418000414,0.00034138009418000414,0.00651292099579312,17.557
2940,0.0012382759667601815,0.0012382759667601815,0.006451719893948396,17.559
2941,-0.0014025619653840935,0.0014025619653840935,0.005854301922509798,17.557
2942,-0.000893590395299381,0.000893590395299381,0.005320438801310039,17.558
2943,-0.00021493958975561537,0.00021493958975561537,0.0051316463237526385,17.559
2944,-0.0020091736635028936,0.0020091736635028936,0.005135332094408694,17.557
2945,-0.004203999145306458,0.004203999145306458,0.0051413713242531725,17.554
2946,-0.0032372408303187375,0.0032372408303187375,0.005141782461939222,17.554
2947,-0.0021916136109832165,0.0021916136109832165,0.0051255369909355385,17.554
2948,-0.0011444709632186432,0.0011444709632186432,0.005103175162432311,17.554
2949,-0.004594408287666568,0.004594408287666568,0.005098829201611676,17.549
2950,-0.0023567170220663044,0.0023567170220663044,0.005031020646124235,17.55
2951,0.003030242624970949,0.003030242624970949,0.0049875213932655,17.555
2952,0.002275518369031009,0.002275518369031009,0.004944355020743007,17.554
2953,0.003146059174312405,0.003146059174312405,0.004829030041150664,17.555
2954,0.005421633454345898,0.005421633454345898,0.004706000167982735,17.558
2955,0.0062822876474173985,0.0062822876474173985,0.00465015373527046,17.56
2956,0.005928143492117279,0.005928143492117279,0.004663000930936045,17.561
2957,0.005442796020773019,0.005442796020773019,0.00469403703482951,17.562
2958,0.004911972713920287,0.004911972713920287,0.0047196671197727545,17.563
2959,0.0008855560277873445,0.0008855560277873445,0.004714713292396438,17.56
2960,-0.0017115571307431314,0.0017115571307431314,0.004711049969820349,17.558
2961,0.0014403621627812667,0.0014403621627812667,0.004692531147451231,17.562
2962,-0.0009044675385668642,0.0009044675385668642,0.004611574481647978,17.56
2963,-0.0018533359490897554,0.0018533359490897554,0.004571046927556482,17.559
2964,-0.0024417921858464753,0.0024417921858464753,0.004522843927320932,17.558
2965,-0.0009541109577487058,0.0009541109577487058,0.0044836094093437225,17.559
2966,0.009396019900716583,0.009396019900716583,0.004567616534209318,17.57
2967,0.012455969671997939,0.012455969671997939,0.004723454303461797,17.574
2968,-0.00420883626272647,0.00420883626272647,0.004731831767580719,17.556
2969,-0.0055664645000696525,0.0055664645000696525,0.0047538229407745256,17.553
2970,-0.00856992548694995,0.00856992548694995,0.004830404477958442,17.548
2971,-0.004258496989934813,0.004258496989934813,0.004832287946757022,17.551
2972,-0.0006579666578388748,0.0006579666578388748,0.00482814417968095,17.554
2973,0.00138476571103139,0.00138476571103139,0.004829955636677386,17.556
2974,0.00026907273184676134,0.00026907273184676134,0.004821908486220937,17.555
2975,0.010525666041997544,0.010525666041997544,0.0049337544477958736,17.567
2976,0.007826995630752514,0.007826995630752514,0.004991190715267761,17.566
2977,0.003524162217861301,0.003524162217861301,0.005002997305073514,17.563
2978,0.0014254245230498922,0.0014254245230498922,0.004981942696722002,17.562
2979,0.0013466224827504507,0.0013466224827504507,0.004979724266718807,17.563
2980,-0.00041259910908262513,0.00041259910908262513,0.004970882947078405,17.562
2981,-0.002693353878246603,0.002693353878246603,0.004955810336059504,17.56
2982,-0.004492679994783771,0.004492679994783771,0.0048790175567145645,17.558
2983,-0.005835164463790551,0.005835164463790551,0.004643019116356424,17.556
2984,-0.00588406349453236,0.00588406349453236,0.004381353890229677,17.555
2985,-0.006581447045645411,0.006581447045645411,0.004426297514273629,17.553
2986,-0.007889363065679856,0.007889363065679856,0.004453093467403697,17.55
2987,-0.006257966841455008,0.006257966841455008,0.00445582451701615,17.55
2988,-0.0038847439582455944,0.0038847439582455944,0.004423258562085771,17.551
2989,-5.473305498967119e-05,5.473305498967119e-05,0.0043524120893888695,17.554
2990,0.0005615163377504341,0.0005615163377504341,0.004293725013579844,17.554
2991,0.0018271584731973027,0.0018271584731973027,0.0041991252543515396,17.555
2992,0.0036194925074425326,0.0036194925074425326,0.004112768799473778,17.557
2993,0.005851491883869928,0.005851491883869928,0.004133834778601841,17.56
2994,0.008470345727080338,0.008470345727080338,0.004218365925001381,17.564
2995,0.012337564119192007,0.012337564119192007,0.004394006176435766,17.57
2996,0.008510253031281629,0.008510253031281629,0.004474282641805269,17.568
2997,0.004174078104206768,0.004174078104206768,0.004493431478941826,17.565
2998,0.0047685355426415055,0.0047685355426415055,0.0045175121809134244,17.567
2999,0.0035806923951206757,0.0035806923951206757,0.004527506529231192,17.567
3000,7.124616181156292e-06,7.124616181156292e-06,0.004483892210013157,17.564
3001,-0.0029590468556317316,0.0029590468556317316,0.004468031245472544,17.561
3002,-0.005358522032896141,0.005358522032896141,0.004477742195175015,17.558
3003,-0.0072506759572523935,0.0072506759572523935,0.004535311700420159,17.555
3004,-0.006943988822232885,0.006943988822232885,0.004587992656338197,17.554
3005,-0.006509476998045923,0.006509476998045923,0.004624238899180292,17.553
3006,-0.0015973428138413666,0.0015973428138413666,0.004608277209040626,17.557
3007,0.015138940288427043,0.015138940288427043,0.0048484779615776095,17.575
3008,0.016566759674824454,0.016566759674824454,0.005118101413403731,17.578
3009,0.008907782194003719,0.008907782194003719,0.005162631007289755,17.571
3010,-0.0014690537162907295,0.0014690537162907295,0.005138321506984336,17.56
3011,-0.0036559117720236034,0.0036559117720236034,0.005129317032382459,17.557
3012,-0.0013211807101482843,0.0013211807101482843,0.0051277795396080525,17.559
3013,-0.00033093642929624655,0.00033093642929624655,0.0051264819808299784,17.56
3014,0.0021319007172967454,0.0021319007172967454,0.005130154942888008,17.563
3015,0.0014909440566741265,0.0014909440566741265,0.005125291311913843,17.563
3016,0.0008123570376745021,0.0008123570376745021,0.0051155586159949236,17.563
3017,0.0010351477902743173,0.0010351477902743173,0.005105359964239138,17.564
3018,0.00299002844630344,0.00299002844630344,0.005102744216849971,17.567
3019,0.0012206651038679454,0.0012206651038679454,0.005060902174269756,17.566
3020,-0.005535592535338222,0.005535592535338222,0.005066158335339234,17.559
3021,-0.006907866843157658,0.006907866843157658,0.0050838532048656515,17.557
3022,-0.007059103278040285,0.007059103278040285,0.005086680140468688,17.556
3023,-0.008784680101352596,0.008784680101352596,0.005140080161694575,17.553
3024,-0.006604412823688354,0.006604412823688354,0.005177374586692359,17.554
3025,-0.007209382230020406,0.007209382230020406,0.005227059996807296,17.552
3026,-0.0023506050004179725,0.0023506050004179725,0.005204626024624023,17.556
3027,-0.0024640099040265035,0.0024640099040265035,0.005177161027958272,17.555
3028,-0.0016961684198325512,0.0016961684198325512,0.005152978317940401,17.555
3029,-0.0019699742913785586,0.0019699742913785586,0.005152793304450297,17.554
3030,-0.0023169428707326676,0.0023169428707326676,0.005157159822840299,17.553
3031,0.0034275394435722304,0.0034275394435722304,0.005167653038698098,17.559
3032,0.0030167003853697563,0.0030167003853697563,0.005174270815253971,17.559
3033,0.005151260082489344,0.005151260082489344,0.005199839422793748,17.562
3034,0.005121253050512803,0.005121253050512803,0.005224241273036995,17.563
3035,0.004989120376260826,0.004989120376260826,0.0052453054283123,17.564
3036,0.00481104890538095,0.00481104890538095,0.0052598196682875215,17.565
3037,0.001990965658069275,0.001990965658069275,0.00525132444192194,17.563
3038,0.0030870844069930637,0.0030870844069930637,0.005255070964593024,17.565
3039,0.0005994462083912049,0.0005994462083912049,0.005255301970085942,17.563
3040,-0.001465481808862634,0.001465481808862634,0.005255886404062752,17.561
3041,-0.004902451381460518,0.004902451381460518,0.005276837157542396,17.557
3042,-0.007769658054077999,0.007769658054077999,0.005332982393749992,17.553
3043,-0.007494708879901247,0.007494708879901247,0.005385345470229339,17.552
3044,-0.007137558691346421,0.007137558691346421,0.0054287222701426404,17.551
3045,-0.004980730338543679,0.004980730338543679,0.0054352889661229776,17.552
3046,-0.004825167051790314,0.004825167051790314,0.005447053445129778,17.551
3047,-0.002057866226428115,0.002057866226428115,0.005446531709809505,17.553
3048,-0.0014604064425483608,0.0014604064425483608,0.0054472871594839125,17.553
3049,0.005147017835127552,0.005147017835127552,0.005452226100290755,17.56
3050,-0.0015508536479794403,0.0015508536479794403,0.005449337553120129,17.553
3051,0.003913779863690303,0.003913779863690303,0.005454964050513774,17.559
3052,0.007696564984302451,0.007696564984302451,0.005504291423925115,17.564
3053,0.007366431674105086,0.007366431674105086,0.005544446803090946,17.565
3054,0.003455336852679492,0.003455336852679492,0.005528683639604226,17.562
3055,0.0017442509987830356,0.0017442509987830356,0.005495643321891083,17.561
3056,0.002895873514473584,0.002895873514473584,0.005471245516601593,17.563
3057,-0.0004653433533975764,0.0004653433533975764,0.005444304607758562,17.56
3058,0.0010837596137231783,0.0010837596137231783,0.005423183866663707,17.562
3059,-0.0009785463722614953,0.0009785463722614953,0.0054233436814279685,17.56
3060,-0.004430209619619864,0.004430209619619864,0.005438715839378301,17.556
3061,-0.004679742315380374,0.004679742315380374,0.005456911528629387,17.555
3062,-0.0065465947683143585,0.0065465947683143585,0.005495296338379788,17.552
3063,-0.007208779659062514,0.007208779659062514,0.005539277782070291,17.55
3064,-0.009499796644559588,0.009499796644559588,0.0056148407118126525,17.546
3065,-0.0053106173038098585,0.0053106173038098585,0.005639092081470836,17.549
3066,-0.0007764691146439715,0.0007764691146439715,0.005560803597180935,17.553
3067,0.002250414124701155,0.002250414124701155,0.005424174451384252,17.556
3068,0.004805576696587622,0.004805576696587622,0.005429130789182841,17.559
3069,0.004277851888884765,0.004277851888884765,0.005417435373272125,17.559
3070,0.002806842115851583,0.002806842115851583,0.005356580385067933,17.558
3071,0.0058212327625976,0.0058212327625976,0.005371263628265241,17.562
3072,0.008378930548451197,0.008378930548451197,0.005435826389285671,17.566
3073,0.007914397634882902,0.007914397634882902,0.005491394146566099,17.567
3074,0.008368977899503305,0.008368977899503305,0.005554735239632392,17.569
3075,0.00879008116407906,0.00879008116407906,0.005524476662530878,17.571
3076,0.005687049753518013,0.005687049753518013,0.005498240549284835,17.569
3077,0.00040634676564317573,0.00040634676564317573,0.005487085120659372,17.564
3078,-0.0032279381228941806,0.0032279381228941806,0.00549472297899582,17.56
3079,-0.004523167597570048,0.004523167597570048,0.005511663736654413,17.558
3080,-0.0020044473721448504,0.0020044473721448504,0.005515153022208913,17.56
3081,-0.004996365138114624,0.004996365138114624,0.0055311850405839,17.556
3082,-0.004024914550089208,0.004024914550089208,0.005527582255306475,17.556
3083,-0.0031452780647325176,0.0031452780647325176,0.005505688139281869,17.556
3084,0.002913594620155174,0.002913594620155174,0.005481903883785098,17.562
3085,0.0019930997766590187,0.0019930997766590187,0.00544590122992595,17.561
3086,0.00021130307164726183,0.00021130307164726183,0.00538849387121937,17.559
3087,0.0003044995231664921,0.0003044995231664921,0.005352118450658328,17.559
3088,0.0011510116554217709,0.0011510116554217709,0.0053392422526024426,17.56
3089,-0.0008755697016351475,0.0008755697016351475,0.005339957312369298,17.558
3090,0.001656290026016122,0.001656290026016122,0.005342230251351353,17.561
3091,0.014402497103311977,0.014402497103311977,0.005529951012956703,17.576
3092,0.022896411577644767,0.022896411577644767,0.005974262094762465,17.588
3093,0.007368440158702047,0.007368440158702047,0.005991022208936415,17.574
3094,-4.53655324103297e-05,4.53655324103297e-05,0.005930843120579231,17.567
3095,-0.0011637399504792279,0.0011637399504792279,0.005802265776719787,17.566
3096,-0.001141679372140587,0.001141679372140587,0.005740651391176528,17.566
3097,-0.005409278024552516,0.005409278024552516,0.0057509522691712445,17.561
3098,-0.009029215178087574,0.009029215178087574,0.005801838498044702,17.556
3099,-0.0085615280130356,0.0085615280130356,0.005853726505081083,17.555
3100,-0.008953248978974808,0.008953248978974808,0.0059218004155393794,17.553
3101,-0.003955277336828766,0.003955277336828766,0.0059276135810844175,17.557
3102,-0.003989356700106432,0.003989356700106432,0.005916807826158709,17.556
3103,-0.0023013876183582615,0.0023013876183582615,0.0058767215080367296,17.557
3104,-0.0026709700764630407,0.0026709700764630407,0.005841661295118209,17.556
3105,-0.0013395049447840653,0.0013395049447840653,0.0058068249942608285,17.557
3106,0.0023558010232407273,0.0023558010232407273,0.005809406119211669,17.561
3107,0.003706996901074524,0.003706996901074524,0.005620920083724208,17.563
3108,0.005662830430236264,0.005662830430236264,0.005401003963264269,17.566
3109,0.006409205487245483,0.006409205487245483,0.005365457774022234,17.568
3110,0.006130074233907289,0.006130074233907289,0.005398364014933996,17.569
3111,0.0005745285820956889,0.0005745285820956889,0.005386276817970139,17.564
3112,0.0010335641695965354,0.0010335641695965354,0.005385648087653017,17.565
3113,0.0032807741416729366,0.0032807741416729366,0.005395530087445064,17.568
3114,0.0009404542904756447,0.0009404542904756447,0.005392136817678644,17.566
3115,0.0007750840515927233,0.0007750840515927233,0.005390632418523321,17.566
3116,-0.002774745640500111,0.002774745640500111,0.005397157656189297,17.562
3117,-0.005769865816666902,0.005769865816666902,0.005426924448682611,17.558
3118,-0.008298033112645133,0.008298033112645133,0.005481850034978845,17.554
3119,-0.006030790736145015,0.006030790736145015,0.005513572702166108,17.555
3120,-0.005780484973525469,0.005780484973525469,0.005516085220533662,17.554
3121,-0.0055815788000628435,0.0055815788000628435,0.005501049912150864,17.553
3122,-0.00016825739336526462,0.00016825739336526462,0.005455595645809802,17.558
3123,-0.0008159804477576773,0.0008159804477576773,0.005385023309760051,17.557
3124,-0.0006271180494479577,0.0006271180494479577,0.005344738172228976,17.557
3125,0.0038228354725766576,0.0038228354725766576,0.0053096718277874854,17.562
3126,0.003182206575329227,0.003182206575329227,0.005314002810217632,17.562
3127,0.003390064724373995,0.003390064724373995,0.005319101221755789,17.563
3128,0.0043754022715374735,0.0043754022715374735,0.005334370570608805,17.565
3129,0.006967247273881479,0.006967247273881479,0.005376069823137017,17.569
3130,0.0030604298148522923,0.0030604298148522923,0.005379786873761679,17.566
3131,0.001443557672944836,0.001443557672944836,0.005370797438768026,17.565
3132,0.015136862512899809,0.015136862512899809,0.005571867405410022,17.581
3133,-0.0027633158493783868,0.0027633158493783868,0.005554881702064445,17.563
3134,-0.005093696253349312,0.005093696253349312,0.005554628323395759,17.56
3135,-0.005223616515907819,0.005223616515907819,0.005556783627678408,17.559
3136,-0.009623784235503148,0.009623784235503148,0.005618946039894877,17.553
3137,-0.006317793687361202,0.006317793687361202,0.005650845983345753,17.555
3138,-0.0068899168968817835,0.0068899168968817835,0.005684317810836688,17.553
3139,-0.006500821618187237,0.006500821618187237,0.005721056059342765,17.552
3140,-0.004432697892800365,0.004432697892800365,0.005736331072289138,17.553
3141,-0.002702478384545174,0.002702478384545174,0.005721729438694507,17.554
3142,-0.0021889508436400964,0.0021889508436400964,0.0056729557520581,17.554
3143,-0.003650243215387847,0.003650243215387847,0.00563506549280301,17.552
3144,0.00021733570978815526,0.00021733570978815526,0.005589721640257462,17.556
3145,0.00435598779725027,0.00435598779725027,0.005584501550309357,17.561
3146,0.008755410990965936,0.008755410990965936,0.005632087304973003,17.567
3147,0.006351870084801436,0.006351870084801436,0.0056640552444799895,17.566
3148,0.008627622924280483,0.008627622924280483,0.005727525880865367,17.57
3149,0.006232338522705968,0.006232338522705968,0.005738297240876203,17.569
3150,0.0015533147821171697,0.0015533147821171697,0.005738303897703256,17.565
3151,0.0028678148754053417,0.0028678148754053417,0.005732119897191444,17.567
3152,-0.0002431315805146825,0.0002431315805146825,0.005680265708561227,17.564
3153,-0.005461774256234824,0.005461774256234824,0.005658717623633882,17.558
3154,-0.0072330041584977136,0.0072330041584977136,0.0056942826684261375,17.555
3155,-0.007766328806258726,0.007766328806258726,0.005744352846382261,17.553
3156,-0.009020682169045387,0.009020682169045387,0.005807534404338128,17.55
3157,-0.0030062097106289785,0.0030062097106289785,0.005815123677227192,17.555
3158,-0.001268260944027792,0.001268260944027792,0.005815496787950828,17.556
3159,-0.0015749098219889888,0.0015749098219889888,0.0058168058907027064,17.555
3160,-0.00018655384570472923,0.00018655384570472923,0.0057999406221744595,17.556
3161,7.556824350502065e-06,7.556824350502065e-06,0.005781030350242228,17.556
3162,0.006205019901546514,0.006205019901546514,0.005777261946597406,17.563
3163,0.008837749454922562,0.008837749454922562,0.0057998404040243345,17.567
3164,0.005703904089520552,0.005703904089520552,0.005749872395792605,17.565
3165,0.004609905021871393,0.004609905021871393,0.00574382435747554,17.565
3166,0.006239056480281058,0.006239056480281058,0.005777088147528192,17.568
3167,0.0023571566381600404,0.0023571566381600404,0.005777513799304367,17.565
3168,-0.0001285941883608652,0.0001285941883608652,0.005757507741370161,17.563
3169,0.0030785647889486206,0.0030785647889486206,0.005749840940034995,17.567
3170,0.002484601980130085,0.002484601980130085,0.005748357998512792,17.567
3171,0.0012249534384008377,0.0012249534384008377,0.005720118642088213,17.566
3172,0.0011582061618360608,0.0011582061618360608,0.005659603071182693,17.566
3173,0.015390783302202855,0.015390783302202855,0.005811496548279439,17.582
3174,0.0015101065485306389,0.0015101065485306389,0.005752903478915602,17.568
3175,-0.009702119155706847,0.009702119155706847,0.005767543179736377,17.555
3176,-0.0062310614538804,0.0062310614538804,0.0057731612007247855,17.557
3177,-0.007589318934405122,0.007589318934405122,0.0058226898158407646,17.554
3178,-0.007065085786988533,0.007065085786988533,0.0058565070834088895,17.553
3179,-0.0031736840232284864,0.0031736840232284864,0.00584763263805571,17.556
3180,9.601903977958168e-05,9.601903977958168e-05,0.005844204100947998,17.559
3181,0.001023343371630445,0.001023343371630445,0.005823706486780246,17.56
3182,0.004304271063674741,0.004304271063674741,0.0058257038516137255,17.564
3183,0.006131040567138656,0.006131040567138656,0.005849426827478152,17.567
3184,0.005828168834211122,0.005828168834211122,0.005871165079736377,17.568
3185,0.003702487659528214,0.003702487659528214,0.005879450575947404,17.567
3186,0.004452712324067269,0.004452712324067269,0.0058962495754111685,17.569
3187,0.00248758768105588,0.00248758768105588,0.005901416167383021,17.568
3188,-3.8711408748270774e-05,3.8711408748270774e-05,0.0059002948645023,17.566
3189,-0.00035814751406544956,0.00035814751406544956,0.005899753889906452,17.566
3190,-0.0013567190264462258,0.0013567190264462258,0.005898988884557312,17.565
3191,-0.0011690334658342335,0.0011690334658342335,0.005721662085833453,17.565
3192,5.7938904551189377e-05,5.7938904551189377e-05,0.005243566912160231,17.566
3193,-0.0048934573609053416,0.0048934573609053416,0.005214548312942151,17.56
3194,-0.006470977569589294,0.006470977569589294,0.005254543656184978,17.557
3195,-0.0069005151323125085,0.0069005151323125085,0.005298382509685681,17.555
3196,-0.004613405808165155,0.004613405808165155,0.005317203967553205,17.556
3197,-0.0053043460642772265,0.0053043460642772265,0.005316146726416663,17.554
3198,-0.004249499007603694,0.004249499007603694,0.0052561136943206225,17.554
3199,-0.0017059157518392234,0.0017059157518392234,0.005188721907557639,17.556
3200,0.0038828897819718896,0.0038828897819718896,0.005125621590769539,17.562
3201,0.005065704262832895,0.005065704262832895,0.005135383929214581,17.564
3202,0.00504021340892067,0.00504021340892067,0.005144614265783508,17.565
3203,0.005753885432355657,0.005753885432355657,0.005171572688234267,17.567
3204,0.007165389009768281,0.007165389009768281,0.0052141395507609946,17.57
3205,0.003945503752345068,0.003945503752345068,0.0052273299607387275,17.568
3206,0.003790248422546441,0.003790248422546441,0.005235755949705055,17.569
3207,0.004620893794205876,0.004620893794205876,0.005243019044329272,17.571
3208,0.00018169121248479353,0.00018169121248479353,0.0052123797186458196,17.567
3209,-0.0035471055222991757,0.0035471055222991757,0.005184972782709293,17.563
3210,-0.003096652649864605,0.003096652649864605,0.005157912100127642,17.563
3211,-0.0025126201374048767,0.0025126201374048767,0.005163708841644309,17.563
3212,-0.005370266551518813,0.005370266551518813,0.00519053023117027,17.559
3213,-0.006872159079196735,0.006872159079196735,0.005225536814060701,17.556
3214,-0.001048476848040953,0.001048476848040953,0.005225742386435414,17.561
3215,0.011149774118053027,0.011149774118053027,0.005342803624067931,17.574
3216,0.01032705495128749,0.01032705495128749,0.0054346148963222585,17.574
3217,0.0015506016863448963,0.0015506016863448963,0.00540612330712141,17.565
3218,-0.0071749137493052895,0.0071749137493052895,0.005390026859813918,17.555
3219,-0.00615597488580384,0.00615597488580384,0.005391441871005403,17.555
3220,0.000757051675731344,0.000757051675731344,0.0053608988663782844,17.562
3221,0.004005776159867868,0.004005776159867868,0.005346789584690286,17.566
3222,0.004050352410698525,0.004050352410698525,0.0053620825528852886,17.567
3223,0.0022000312710788806,0.0022000312710788806,0.005365973577924404,17.566
3224,0.0040382414657168,0.0040382414657168,0.005380781877186414,17.569
3225,0.0038712616182188016,0.0038712616182188016,0.005381128094045038,17.57
3226,0.0028840731243908336,0.0028840731243908336,0.005379447365251233,17.57
3227,-0.0005367385143332814,0.0005367385143332814,0.00536902313735764,17.567
3228,-0.0025159338195641875,0.0025159338195641875,0.005357076369527336,17.565
3229,-0.0014321296194592897,0.0014321296194592897,0.00531350654800231,17.566
3230,-0.005602385985662515,0.005602385985662515,0.005334187549802737,17.561
3231,-0.008211748955162756,0.008211748955162756,0.005395094664410025,17.557
3232,-0.009476728129112533,0.009476728129112533,0.005264397793758782,17.554
3233,-0.006070019886902202,0.006070019886902202,0.005292067308752975,17.556
3234,-0.004801975211900136,0.004801975211900136,0.005289339150074907,17.556
3235,-0.0054733226673487866,0.0054733226673487866,0.005291863524286283,17.554
3236,-0.002601699313728504,0.002601699313728504,0.0052101185900847785,17.556
3237,-0.002851978017661177,0.002851978017661177,0.005179529741020763,17.555
3238,-0.000577915293830195,0.000577915293830195,0.0051338249532417515,17.557
3239,0.00212804776208232,0.00212804776208232,0.005096943957528844,17.56
3240,0.004329158254487589,0.004329158254487589,0.005096053935352863,17.563
3241,0.0034544646515049,0.0034544646515049,0.005100594580842614,17.563
3242,0.0052173318286449985,0.0052173318286449985,0.005122534093030932,17.566
3243,0.004928530184514462,0.004928530184514462,0.005133226750957539,17.567
3244,0.004661650201590506,0.004661650201590506,0.005154304449162708,17.568
3245,0.0027056473646365894,0.0027056473646365894,0.005142986810636228,17.567
3246,0.001971433631600986,0.001971433631600986,0.005071745914752532,17.567
3247,0.004122044056469326,0.004122044056469326,0.0050486687908895145,17.57
3248,0.0008810619653567707,0.0008810619653567707,0.004975184467809618,17.567
3249,-0.0017826824155464023,0.0017826824155464023,0.004939212449375408,17.564
3250,-0.0030617339769428904,0.0030617339769428904,0.004946254532613262,17.562
3251,-0.003150901765022311,0.003150901765022311,0.004947976566145952,17.561
3252,-0.004889731887545608,0.004889731887545608,0.004972019282826229,17.558
3253,-0.00459775408404056,0.00459775408404056,0.004963271037804431,17.557
3254,-0.007001353312081096,0.007001353312081096,0.0049599481232313015,17.553
3255,-0.002112371114386784,0.002112371114386784,0.004903320086545995,17.557
3256,0.00912915630641438,0.00912915630641438,0.004905327282847246,17.569
3257,0.019723047726370825,0.019723047726370825,0.005278432428265967,17.582
3258,0.007633795592647848,0.007633795592647848,0.005331839494306969,17.571
3259,0.00037197457856808294,0.00037197457856808294,0.005329642824284628,17.564
3260,0.0018007048291175509,0.0018007048291175509,0.005332651309610561,17.566
3261,0.0002931547792504548,0.0002931547792504548,0.005332731834255428,17.565
3262,-0.0011022657120691832,0.0011022657120691832,0.005297655707319551,17.564
3263,0.0003001327827590215,0.0003001327827590215,0.005223504440113786,17.566
3264,-0.001977312415287775,0.001977312415287775,0.005196032242119024,17.564
3265,-0.004790757121341799,0.004790757121341799,0.0051976679728499954,17.561
3266,-0.0036172583837832282,0.0036172583837832282,0.0051727497214247384,17.562
3267,-0.0059857259162430475,0.0059857259162430475,0.005201929156935466,17.559
3268,-0.009687732534780072,0.009687732534780072,0.005291353626982125,17.554
3269,-0.009262128277593483,0.009262128277593483,0.005362976579893418,17.553
3270,-0.009649467962316074,0.009649467962316074,0.005443427931556207,17.551
3271,-0.010785766210571436,0.010785766210571436,0.00554790321331175,17.548
3272,-0.008204206960937934,0.008204206960937934,0.005607040731769363,17.549
3273,-0.00328808025398466,0.00328808025398466,0.00540169032606771,17.553
3274,-0.002555084568109177,0.002555084568109177,0.005405621031144917,17.553
3275,-0.002885189017270758,0.002885189017270758,0.005325661529603125,17.552
3276,0.0011266306344258,0.0011266306344258,0.005290283775501899,17.556
3277,0.003635397004750952,0.003635397004750952,0.0052481697686221,17.559
3278,0.009241757407675567,0.009241757407675567,0.005281877729399567,17.566
3279,0.008747264659259625,0.008747264659259625,0.0053444041796748025,17.567
3280,0.007342356871317209,0.007342356871317209,0.005394595988896971,17.567
3281,0.004296471363320143,0.004296471363320143,0.005410710695335594,17.565
3282,0.004274060964538976,0.004274060964538976,0.0054104712092394565,17.566
3283,0.0034168349092926625,0.0034168349092926625,0.005386469133822608,17.566
3284,9.595812143372347e-05,9.595812143372347e-05,0.005354854460172907,17.563
3285,-0.0027091558389804294,0.0027091558389804294,0.005348904317198327,17.56
3286,-0.004161165018576862,0.004161165018576862,0.005346556262422773,17.558
3287,-0.004423950856378623,0.004423950856378623,0.0053590574128608934,17.557
3288,-0.008959359320506117,0.008959359320506117,0.0054334319323008935,17.551
3289,-0.007553692199141506,0.007553692199141506,0.005485570391939421,17.551
3290,-0.005384430070165671,0.005384430070165671,0.005510262836885393,17.552
3291,-0.0017050570662235772,0.0017050570662235772,0.005511660578728396,17.555
3292,-0.00292904035565325,0.00292904035565325,0.005519434893174526,17.553
3293,-0.0023115557646015946,0.0023115557646015946,0.005502557150188549,17.553
3294,-0.00010393718109625574,0.00010393718109625574,0.005464385392100926,17.555
3295,0.0008310280816083524,0.0008310280816083524,0.0054212768513715905,17.556
3296,0.0024101468453756277,0.0024101468453756277,0.005406985818907988,17.558
3297,0.005447860808468851,0.005447860808468851,0.005408412581160989,17.562
3298,0.02127817700396253,0.02127817700396253,0.005796374073161929,17.581
3299,0.007725918639548062,0.007725918639548062,0.005845147483062275,17.569
3300,0.006408464995791632,0.006408464995791632,0.005867338834955989,17.569
3301,0.003521032078170192,0.003521032078170192,0.005856024938160091,17.567
3302,0.0010626024259402954,0.0010626024259402954,0.005835261931004846,17.565
3303,-0.004522952264466227,0.004522952264466227,0.005824412485359708,17.559
3304,-0.00841929494310161,0.00841929494310161,0.005841164102847166,17.554
3305,-0.006410807379821303,0.006410807379821303,0.005862978133201962,17.555
3306,-0.002765534193801924,0.002765534193801924,0.005857246328534346,17.558
3307,-0.0056653446967585746,0.0056653446967585746,0.005866410253629274,17.554
3308,-0.00639594853392737,0.00639594853392737,0.005901145712775293,17.552
3309,-0.005258703485047458,0.005258703485047458,0.005913902330186005,17.552
3310,-0.0025216493711959958,0.0025216493711959958,0.005911170387508116,17.554
3311,-0.0019526792108088224,0.0019526792108088224,0.005909055111573016,17.554
3312,-0.0033186665817517007,0.0033186665817517007,0.005893951998622989,17.552
3313,-0.00021650512600001,0.00021650512600001,0.005853791352847307,17.555
3314,0.004152853174400145,0.004152853174400145,0.0058675669625955175,17.56
3315,0.005221756005631451,0.005221756005631451,0.005784274785098804,17.562
3316,0.0025274449389757004,0.0025274449389757004,0.005696949528392913,17.56
3317,0.0027466492337638523,0.0027466492337638523,0.005701458681187879,17.561
3318,0.0037974064193264756,0.0037974064193264756,0.005668865863232993,17.563
3319,0.0029675133908403546,0.0029675133908403546,0.00564314994171075,17.563
3320,0.002292148590987286,0.002292148590987286,0.005647295763802743,17.563
3321,0.002670748902875523,0.002670748902875523,0.005639398550772668,17.564
3322,-0.0013025266797551125,0.0013025266797551125,0.005626342348761146,17.56
3323,0.001519911794986839,0.001519911794986839,0.005624093541911553,17.563
3324,-0.0020602152407785635,0.0020602152407785635,0.005613358985064135,17.559
3325,-0.0024415706656971785,0.0024415706656971785,0.005605314005761787,17.558
3326,-0.0026883507399012596,0.0026883507399012596,0.005604341051571379,17.557
3327,-0.00550389744856325,0.00550389744856325,0.0056310466710233825,17.553
3328,-0.003546971398089221,0.003546971398089221,0.0056365944897950465,17.554
3329,-0.001859325242760594,0.001859325242760594,0.005637841643173584,17.555
3330,-0.001333466935939366,0.001333466935939366,0.005611521402157455,17.555
3331,-0.002744534891394549,0.002744534891394549,0.005557892492262318,17.553
3332,-0.0005752880393754339,0.0005752880393754339,0.005476805159807786,17.555
3333,0.0029634947340449204,0.0029634947340449204,0.005451125237472574,17.559
3334,0.005058653519934269,0.005058653519934269,0.0054534462910714385,17.562
3335,0.007673004284245605,0.007673004284245605,0.005479895417510466,17.566
3336,0.005474451640843294,0.005474451640843294,0.005501023686673324,17.565
3337,0.0026260424764678377,0.0026260424764678377,0.005499898617801138,17.563
3338,0.00544103842000656,0.00544103842000656,0.0055264449636364165,17.567
3339,0.021230107554307872,0.021230107554307872,0.005916374120269955,17.586
3340,0.02282512001309763,0.02282512001309763,0.006326604749405418,17.591
3341,0.015519710481850371,0.015519710481850371,0.006505014106773236,17.586
3342,-0.001340036485131882,0.001340036485131882,0.00648544215863743,17.569
3343,-0.0027158691779704085,0.0027158691779704085,0.006472388689591619,17.567
3344,-0.002873579454124837,0.002873579454124837,0.006461971843944023,17.566
3345,-0.009072194100278378,0.009072194100278378,0.006519733268565434,17.558
3346,-0.007375270626104665,0.007375270626104665,0.006558353646738156,17.558
3347,-0.007642804560316135,0.007642804560316135,0.0065898569558922,17.556
3348,-0.007052656881205507,0.007052656881205507,0.006626903627493989,17.555
3349,-0.007537579849973891,0.007537579849973891,0.006667250049465172,17.553
3350,-0.0019458417176010621,0.0019458417176010621,0.006663058162175777,17.558
3351,0.0009981154785672786,0.0009981154785672786,0.006656352199087319,17.561
3352,0.001604611515392513,0.001604611515392513,0.006640307041103377,17.562
3353,0.001939399794501921,0.001939399794501921,0.006627208830992358,17.563
3354,0.0029551814472396345,0.0029551814472396345,0.006596744529041451,17.565
3355,0.004621592721122746,0.004621592721122746,0.006609539201562292,17.568
3356,-0.00014720286640412545,0.00014720286640412545,0.006546205786190809,17.564
3357,0.000988910056493885,0.000988910056493885,0.0062428041383651755,17.566
3358,0.0020767887390134,0.0020767887390134,0.006199434302672381,17.568
3359,0.0031773453348937306,0.0031773453348937306,0.006207459807042788,17.57
3360,0.003447248451571703,0.003447248451571703,0.006214416070404704,17.571
3361,-0.001406896748556668,0.001406896748556668,0.006215939292131904,17.566
3362,-0.001036245917334843,0.001036245917334843,0.006215825724912272,17.566
3363,-0.003163363573540392,0.003163363573540392,0.006223797661925741,17.563
3364,-0.006641550717638822,0.006641550717638822,0.006256010042516356,17.558
3365,-0.006060277295865153,0.006060277295865153,0.006267010269908325,17.557
3366,-0.005516511810400617,0.005516511810400617,0.006280835228417381,17.556
3367,-0.005079931098185356,0.005079931098185356,0.006272850948229846,17.555
3368,-0.00392333715337448,0.00392333715337448,0.0062099970327081635,17.555
3369,-0.0021923949886803566,0.0021923949886803566,0.006144449438460873,17.556
3370,-0.0008816455775318716,0.0008816455775318716,0.0060688474664872165,17.557
3371,-0.0008429668581889289,0.0008429668581889289,0.005972829143315362,17.557
3372,-0.001916996364304869,0.001916996364304869,0.005919319775723041,17.556
3373,0.00047815184466896293,0.00047815184466896293,0.005910373776806763,17.559
3374,0.00243275079342215,0.00243275079342215,0.005909857559560306,17.562
3375,0.004945562354669888,0.004945562354669888,0.005923492136204587,17.566
3376,0.005369771003673071,0.005369771003673071,0.005946714263198812,17.568
3377,0.0040350166593209865,0.0040350166593209865,0.005949290966890143,17.568
3378,0.0003429961780830864,0.0003429961780830864,0.005877170975280469,17.565
3379,0.0008253778807855473,0.0008253778807855473,0.0058122977185402986,17.566
3380,0.0023619660238991943,0.0023619660238991943,0.005770571164076526,17.568
3381,0.018979138396989767,0.018979138396989767,0.0060594530975026225,17.587
3382,0.017903431755991593,0.017903431755991593,0.0063039372265245985,17.588
3383,0.002141047409802789,0.002141047409802789,0.006298310709079004,17.572
3384,-0.011535742087764523,0.011535742087764523,0.006403074196324981,17.556
3385,-0.009297673728536278,0.009297673728536278,0.006464551900763666,17.556
3386,-0.005534775058190899,0.005534775058190899,0.0064748448386039775,17.558
3387,-0.004063051872875655,0.004063051872875655,0.006472479136885404,17.558
3388,-0.0020392672115915247,0.0020392672115915247,0.006413413372821071,17.559
3389,-0.004017857447854674,0.004017857447854674,0.006381435592168837,17.556
3390,-0.0007198726509282135,0.0007198726509282135,0.006359086531218909,17.559
3391,-0.001642256681746215,0.001642256681746215,0.0063589212438609705,17.558
3392,-7.656178559804381e-05,7.656178559804381e-05,0.006352176416681612,17.56
3393,0.0019457926545976886,0.0019457926545976886,0.006350950591735404,17.563
3394,0.0017793435627444926,0.0017793435627444926,0.006353434191398455,17.564
3395,-0.0011136881061633165,0.0011136881061633165,0.006353866772264336,17.562
3396,0.0007590824902826308,0.0007590824902826308,0.006349747785840994,17.565
3397,0.0007226728239310423,0.0007226728239310423,0.0063267470022131105,17.566
3398,0.0035085086061527712,0.0035085086061527712,0.00596851872664294,17.57
3399,0.0017690432121122046,0.0017690432121122046,0.0059209469463001865,17.569
3400,-0.0039026115799637657,0.0039026115799637657,0.0058990874104660725,17.563
3401,-0.002405422532738292,0.002405422532738292,0.005893480820616482,17.564
3402,-0.004345466106338479,0.004345466106338479,0.005908523986634187,17.561
3403,-0.005814721755496707,0.005814721755496707,0.005919813731841874,17.558
3404,-0.004286127276174335,0.004286127276174335,0.005875292181380422,17.558
3405,-0.0028604747177987657,0.0028604747177987657,0.005847212742845078,17.558
3406,-0.0033868322644494122,0.0033868322644494122,0.0058504804413137,17.556
3407,-0.001300519463173879,0.001300519463173879,0.00582443762071534,17.557
3408,0.0030007835182766385,0.0030007835182766385,0.005796985340532896,17.561
3409,0.0029993396577747567,0.0029993396577747567,0.005780870159305068,17.561
3410,0.0027174286725970844,0.0027174286725970844,0.005781757244051137,17.561
3411,0.003951708465468105,0.003951708465468105,0.005791955392274278,17.563
3412,0.009192426156489977,0.009192426156489977,0.005855050706331409,17.57
3413,0.010931615218194994,0.010931615218194994,0.0059561860398918715,17.574
3414,0.006131552078459539,0.006131552078459539,0.005973244474808492,17.571
3415,0.004514469976878427,0.004514469976878427,0.005967477405883332,17.571
3416,0.0040211033408886114,0.0040211033408886114,0.0059756672875348055,17.572
3417,0.0010665694982779613,0.0010665694982779613,0.0059703043822008596,17.57
3418,-0.0004423561296523033,0.0004423561296523033,0.005958379666523927,17.569
3419,-0.0006296503711381008,0.0006296503711381008,0.005951318466448956,17.569
3420,-0.002283061233714522,0.002283061233714522,0.005951283535795753,17.567
3421,-0.003461218066753644,0.003461218066753644,0.005955354484114923,17.565
3422,-0.005137439261742833,0.005137439261742833,0.005976053387950441,17.562
3423,0.0015297849062704373,0.0015297849062704373,0.005976078580104438,17.568
3424,0.008380589355288934,0.008380589355288934,0.006031037481778697,17.575
3425,-0.005020928646412111,0.005020928646412111,0.006046974258105223,17.56
3426,-0.002713007421345585,0.002713007421345585,0.006047084377934767,17.561
3427,-0.005238758294876056,0.005238758294876056,0.006044728818345867,17.557
3428,-0.0014765132365482637,0.0014765132365482637,0.0060361193940916555,17.56
3429,0.0024574474668941867,0.0024574474668941867,0.006038257771631747,17.564
3430,0.0029816357540406553,0.0029816357540406553,0.006044144033167683,17.565
3431,0.004051145004887731,0.004051145004887731,0.006051484952842727,17.567
3432,0.0038677420495366534,0.0038677420495366534,0.006063559586317017,17.568
3433,0.0017594310948433707,0.0017594310948433707,0.006058868526730456,17.567
3434,0.00510829497974904,0.00510829497974904,0.006059285011109706,17.572
3435,0.008919854753004173,0.008919854753004173,0.006076333021366188,17.578
3436,0.004388112240277628,0.004388112240277628,0.006067510368281094,17.575
3437,0.0014485535184018822,0.0014485535184018822,0.006063555405145828,17.573
3438,-0.0026735992669614777,0.0026735992669614777,0.006045009221729632,17.569
3439,-0.0024883333924329,0.0024883333924329,0.0056654108283372044,17.569
3440,-0.0029239744530861296,0.0029239744530861296,0.005193507012004542,17.568
3441,-0.008341157321776416,0.008341157321776416,0.005025897930121743,17.561
3442,-0.004037465345355906,0.004037465345355906,0.005040307955902762,17.564
3443,-0.0036337846231399643,0.0036337846231399643,0.005046086477983891,17.563
3444,-0.006741626074523379,0.006741626074523379,0.0050828052663649355,17.558
3445,-0.005069545773676057,0.005069545773676057,0.005026814623732392,17.558
3446,-0.0001699360907478362,0.0001699360907478362,0.00497244485902422,17.562
3447,0.0021830505845996185,0.0021830505845996185,0.004918204993604242,17.564
3448,0.0013561146321930612,0.0013561146321930612,0.004869263921500871,17.563
3449,0.006542556111969175,0.006542556111969175,0.004854856377079076,17.569
3450,0.009055332153532146,0.009055332153532146,0.004934750028752594,17.573
3451,0.005709351181507982,0.005709351181507982,0.004966665119607526,17.571
3452,0.006992139206794038,0.006992139206794038,0.0050130743796641,17.574
3453,0.008880650674529235,0.008880650674529235,0.005087431727742951,17.578
3454,0.007850464643665104,0.007850464643665104,0.005139156405656369,17.579
3455,0.007880703450412167,0.007880703450412167,0.005178647722884124,17.581
3456,0.0045089686578385964,0.0045089686578385964,0.005198219265716661,17.579
3457,0.0008709611779643888,0.0008709611779643888,0.0051980082567464935,17.576
3458,-0.0038350928131182438,0.0038350928131182438,0.005207997570217569,17.571
3459,-0.006807152593841168,0.006807152593841168,0.005242676484581018,17.567
3460,-0.008266104851575692,0.008266104851575692,0.005296235115370406,17.564
3461,-0.0075526144131008305,0.0075526144131008305,0.0053479652819928974,17.563
3462,-0.007647365953974975,0.007647365953974975,0.00540137173889463,17.561
3463,-0.004999103959553399,0.004999103959553399,0.00541522468367932,17.562
3464,-0.0026817343440266256,0.0026817343440266256,0.005381029028568739,17.563
3465,0.007211543759508708,0.007211543759508708,0.00539520782094858,17.573
3466,0.009544529978846795,0.009544529978846795,0.005451140149624928,17.576
3467,0.008716570098138546,0.008716570098138546,0.00549696806193991,17.576
3468,-0.002867188862619715,0.002867188862619715,0.005490440770059926,17.564
3469,-3.67418476285835e-05,3.67418476285835e-05,0.00548606301379286,17.567
3470,0.003989816861007253,0.003989816861007253,0.005499845524003921,17.572
3471,0.0055690521228666775,0.0055690521228666775,0.005527326503124088,17.575
3472,0.004173202693570614,0.004173202693570614,0.005539742388301702,17.575
3473,0.0020060905844607674,0.0020060905844607674,0.005543167274330773,17.574
3474,0.0010101040454528207,0.0010101040454528207,0.005538747490977459,17.574
3475,-0.001531271661270292,0.001531271661270292,0.005518748574430249,17.572
3476,0.002589259552322861,0.002589259552322861,0.00549866202559768,17.577
3477,-0.002414250808998288,0.002414250808998288,0.005489148982039701,17.572
3478,-0.00656977156236248,0.00656977156236248,0.005528218435179815,17.567
3479,-0.009092756122948246,0.009092756122948246,0.005601889745408703,17.563
3480,-0.011090170818341443,0.011090170818341443,0.0057057250873604635,17.559
3481,-0.011792057294778212,0.011792057294778212,0.005508515950966011,17.556
3482,-0.007005588286527312,0.007005588286527312,0.0052563487296825905,17.559
3483,-0.0027801673852749266,0.0027801673852749266,0.00525933973373341,17.562
3484,-0.002663930554033,0.002663930554033,0.005138179272820276,17.561
3485,-0.001809416102698985,0.001809416102698985,0.005056595568002629,17.561
3486,0.0005228164619955865,0.0005228164619955865,0.0050264853286790204,17.563
3487,0.0023496284825470955,0.0023496284825470955,0.0050155436788317,17.565
3488,0.004603205754100991,0.004603205754100991,0.0050324931513924375,17.568
3489,0.006360161491101019,0.006360161491101019,0.005056586998759916,17.571
3490,0.005949216539673091,0.005949216539673091,0.005090954889217883,17.572
3491,0.008109044080638488,0.008109044080638488,0.0051525156548021716,17.576
3492,0.005527319203651126,0.005527319203651126,0.00518207212721917,17.575
3493,0.0006238614160136557,0.0006238614160136557,0.0051787935343879914,17.571
3494,0.0008264863670674324,0.0008264863670674324,0.005176395718434357,17.572
3495,0.0011593931498165729,0.0011593931498165729,0.005176496068443002,17.573
3496,0.003419204861477762,0.003419204861477762,0.005187220749417057,17.576
3497,0.0012108574995687601,0.0012108574995687601,0.005188130520902591,17.574
3498,-0.0031511548528048924,0.0031511548528048924,0.005185836455634719,17.569
3499,-0.0023522439461986905,0.0023522439461986905,0.005188153344066765,17.569
3500,-0.005898121438376794,0.005898121438376794,0.005206967420210047,17.564
3501,-0.007135134500786305,0.007135134500786305,0.005250119101788257,17.561
3502,-0.008183215745898718,0.008183215745898718,0.005295712419079024,17.558
3503,-0.002957190141163463,0.002957190141163463,0.0052719929694527564,17.562
3504,-0.0037840519299832415,0.0037840519299832415,0.005268148772554903,17.56
3505,-0.0002704475241496595,0.0002704475241496595,0.005260446725544634,17.563
3506,0.0008273560269536221,0.0008273560269536221,0.005250184625741411,17.564
3507,0.013923334518360081,0.013923334518360081,0.005430112110880595,17.579
3508,0.018123329251734852,0.018123329251734852,0.005716696699245499,17.586
3509,0.00481989418969634,0.00481989418969634,0.005729133840934078,17.574
3510,0.0018325340615495608,0.0018325340615495608,0.0057256189353027094,17.572
3511,0.0009141084080360549,0.0009141084080360549,0.0057126970982323945,17.572
3512,-0.0034174919341966262,0.0034174919341966262,0.0056486010357371325,17.568
3513,-0.005376489159491983,0.005376489159491983,0.005567832424289118,17.566
3514,-0.00430839098713214,0.00430839098713214,0.005550713550980327,17.567
3515,-0.00407421152112205,0.00407421152112205,0.005547306421003233,17.567
3516,-0.00543331145420674,0.00543331145420674,0.005559327705874766,17.565
3517,-0.005536703984499036,0.005536703984499036,0.005585812362269242,17.564
3518,-0.004553259500554801,0.004553259500554801,0.005604164940276063,17.564
3519,-0.004418532563007471,0.004418532563007471,0.005621203997545743,17.563
3520,-0.004196523907071157,0.004196523907071157,0.005632221482246728,17.562
3521,-0.0004228716846335027,0.0004228716846335027,0.00562173520584543,17.565
3522,-0.0006635523162224601,0.0006635523162224601,0.005598604908343205,17.564
3523,0.002578421552533297,0.002578421552533297,0.005602450988465298,17.567
3524,0.0035270057368917366,0.0035270057368917366,0.005550631675171452,17.568
3525,0.003307933326195939,0.003307933326195939,0.005537764799772432,17.568
3526,0.004696865437028,0.004696865437028,0.005551021557718121,17.57
3527,0.007499867429497032,0.007499867429497032,0.005576905464872997,17.574
3528,0.008029768604559406,0.008029768604559406,0.005632481290619699,17.576
3529,0.003948862957222886,0.003948862957222886,0.005640956496482203,17.573
3530,0.004707234851660715,0.004707234851660715,0.005652704598419586,17.575
3531,0.006240718191657852,0.006240718191657852,0.005672602326442826,17.578
3532,0.004093935007742365,0.004093935007742365,0.0056741894493243005,17.577
3533,0.0014198363415725253,0.0014198363415725253,0.005673237989139596,17.575
3534,9.565760192941676e-05,9.565760192941676e-05,0.0056502012361670335,17.574
3535,-0.0008968812277421874,0.0008968812277421874,0.005580069881318989,17.573
3536,-0.005122833065312634,0.005122833065312634,0.005586327843603629,17.568
3537,-0.006011546269078846,0.006011546269078846,0.0056167127920801856,17.566
3538,-0.004879538082156145,0.004879538082156145,0.005631525563936148,17.566
3539,-0.0029007819964157284,0.0029007819964157284,0.005633498691617374,17.567
3540,-0.003768168439753491,0.003768168439753491,0.0056385106345856265,17.565
3541,-0.00012358202783043122,0.00012358202783043122,0.00557648687318862,17.568
3542,0.0021267372907871297,0.0021267372907871297,0.005565916339448136,17.57
3543,0.00045234161944611266,0.00045234161944611266,0.005554226041517296,17.568
3544,0.004134054658962946,0.004134054658962946,0.005528637786852643,17.572
3545,0.006316875285016323,0.006316875285016323,0.005541467492313333,17.575
3546,0.006297490636023467,0.006297490636023467,0.005577110100107767,17.576
3547,0.007012980373722712,0.007012980373722712,0.00561678902108643,17.578
3548,0.009292496100179078,0.009292496100179078,0.0056915229311809866,17.582
3549,0.020946728117033735,0.020946728117033735,0.006029347979629777,17.597
3550,0.0011205992105603989,0.0011205992105603989,0.005962013425116118,17.578
3551,-0.0003447427690591309,0.0003447427690591309,0.005934713611278572,17.577
3552,-0.003296735856704195,0.003296735856704195,0.005902593515914176,17.574
3553,-0.005753192714239524,0.005753192714239524,0.005863697034649189,17.571
3554,-0.005987985181096736,0.005987985181096736,0.0058416782373072965,17.57
3555,-0.006921626623514831,0.006921626623514831,0.005829514466115492,17.568
3556,-0.007601862983374869,0.007601862983374869,0.005861553901079145,17.566
3557,-0.007206232032821826,0.007206232032821826,0.0059050424386815036,17.565
3558,-0.006791296133075234,0.006791296133075234,0.00593158190244799,17.564
3559,-0.004640813936233557,0.004640813936233557,0.005910639740417067,17.565
3560,-0.003667311713438948,0.003667311713438948,0.005864031804045776,17.565
3561,-0.00023889583937079014,0.00023889583937079014,0.00581524031028394,17.568
3562,0.0008905765592453325,0.0008905765592453325,0.005765425315801938,17.569
3563,0.003511753886084938,0.003511753886084938,0.00575443679448041,17.572
3564,0.005668499585937225,0.005668499585937225,0.005776066542752807,17.575
3565,0.009193374333636515,0.009193374333636515,0.005804141830515424,17.58
3566,0.005106701675278937,0.005106701675278937,0.005747857503763542,17.577
3567,0.005860228969979125,0.005860228969979125,0.0057115236825753465,17.579
3568,0.005609942677002203,0.005609942677002203,0.00573184173065449,17.58
3569,0.0018730675519896215,0.0018730675519896215,0.005734900168806929,17.577
3570,-0.00046270313823215583,0.00046270313823215583,0.005721191702982803,17.575
3571,0.0028892784690224423,0.0028892784690224423,0.005701348120183749,17.579
3572,0.0024249665186348805,0.0024249665186348805,0.005691222962287765,17.579
3573,-0.0022643392889253925,0.0022643392889253925,0.005692191769107451,17.574
3574,-0.006246350585889101,0.006246350585889101,0.005725470547552103,17.569
3575,-0.012273510580261568,0.012273510580261568,0.005853542148265306,17.561
3576,-0.007755858941101468,0.007755858941101468,0.005899020809453726,17.564
3577,-0.005508280349011935,0.005508280349011935,0.005919761140849664,17.565
3578,-0.0017720568210634413,0.0017720568210634413,0.005885860585731557,17.568
3579,-0.0029623187433052093,0.0029623187433052093,0.005822742139140585,17.566
3580,-0.0023340435004289154,0.0023340435004289154,0.005720916423243963,17.566
3581,0.0016311280478888452,0.0016311280478888452,0.005600443228566403,17.57
3582,0.0032081689102903487,0.0032081689102903487,0.005565707965889112,17.572
3583,0.0018015162330997957,0.0018015162330997957,0.005561678385347473,17.571
3584,0.005742939108065941,0.005742939108065941,0.005584900598763034,17.576
3585,0.004689411684622457,0.004689411684622457,0.005601631963206381,17.576
3586,0.004588264878886358,0.004588264878886358,0.005620148487956013,17.577
3587,0.004486194423593056,0.004486194423593056,0.005633127096975273,17.578
3588,0.0044300005812161715,0.0044300005812161715,0.005631738178398117,17.579
3589,0.0026897966722357275,0.0026897966722357275,0.005602169975061253,17.578
3590,0.006576197717819549,0.006576197717819549,0.005609174664721821,17.583
3591,0.010127377221053255,0.010127377221053255,0.0056418890590045154,17.588
3592,0.006324485392986577,0.006324485392986577,0.005650255811304949,17.585
3593,-0.005707126233818775,0.005707126233818775,0.005678662835651442,17.572
3594,-0.010840892725631254,0.010840892725631254,0.005780625429375773,17.565
3595,-0.01171500220747284,0.01171500220747284,0.005896999338409184,17.562
3596,-0.0106669446557655,0.0106669446557655,0.005982936458064925,17.561
3597,-0.008875030445240583,0.008875030445240583,0.006047191790942249,17.561
3598,-0.007373474056058213,0.007373474056058213,0.006083823796259175,17.561
3599,-0.008830118023885248,0.008830118023885248,0.0061430685582420895,17.558
3600,0.0003335440307536044,0.0003335440307536044,0.006114779265226886,17.567
3601,0.001130700557009927,0.001130700557009927,0.0060740603270383955,17.568
3602,0.0025301752808253764,0.0025301752808253764,0.006024000043706799,17.57
3603,0.0027144646394934996,0.0027144646394934996,0.006022857293184041,17.571
3604,0.00540638917268658,0.00540638917268658,0.006035222441868859,17.575
3605,0.005935425662005785,0.005935425662005785,0.006064278298536133,17.577
3606,0.004624844568149697,0.004624844568149697,0.006081325346907397,17.577
3607,0.0026451753336579195,0.0026451753336579195,0.005925697854202045,17.576
3608,0.002786903934274087,0.002786903934274087,0.0056486292817829326,17.577
3609,-0.0004651905278059299,0.0004651905278059299,0.005628220232479223,17.574
3610,-0.00490312803041449,0.00490312803041449,0.00564656424910294,17.569
3611,-0.005071097715071027,0.005071097715071027,0.005668552919201603,17.568
3612,-0.007688000238786919,0.007688000238786919,0.005710232321307243,17.564
3613,-0.007188358549926524,0.007188358549926524,0.0057301319175830125,17.563
3614,-0.002232997227872675,0.002232997227872675,0.005718273535790364,17.567
3615,-0.003145881820744101,0.003145881820744101,0.005712409820665257,17.565
3616,-0.0013229753561153352,0.0013229753561153352,0.005688050620694019,17.566
3617,0.0001950715708948533,0.0001950715708948533,0.005661073174110688,17.567
3618,0.0005125788852593184,0.0005125788852593184,0.005642965101166041,17.567
3619,-0.00025890603756832155,0.00025890603756832155,0.005625699170435368,17.566
3620,0.0015312798493553516,0.0015312798493553516,0.005612114682272753,17.568
3621,0.000270421890279521,0.000270421890279521,0.005612020516921885,17.567
3622,0.0043022864504554375,0.0043022864504554375,0.005628096299158914,17.572
3623,0.008601142697739626,0.008601142697739626,0.0056875989602510986,17.578
3624,0.006996809885422036,0.006996809885422036,0.005719609927582134,17.578
3625,0.009988540437184652,0.009988540437184652,0.005796742438252993,17.583
3626,0.01001263566440612,0.01001263566440612,0.005863799636378203,17.585
3627,0.008373279368137485,0.008373279368137485,0.005875609256473546,17.585
3628,0.004440173145657684,0.004440173145657684,0.0058373935683628635,17.582
3629,0.00029484193364167494,0.00029484193364167494,0.005824096307846668,17.578
3630,-0.0004877287804828361,0.0004877287804828361,0.005805247281315363,17.577
3631,-0.0018614198353866772,0.0018614198353866772,0.0057746064108108895,17.575
3632,0.0077023316227280945,0.0077023316227280945,0.005811345393759247,17.585
3633,0.010917381116158208,0.010917381116158208,0.0059113000293973235,17.589
3634,-0.004761387923547933,0.004761387923547933,0.00593043714100148,17.572
3635,-0.008815346007932122,0.008815346007932122,0.005994926519683014,17.566
3636,-0.0053673840769687875,0.0053673840769687875,0.00599706577490568,17.568
3637,-0.0033484533396287795,0.0033484533396287795,0.005976247352709644,17.569
3638,-0.005291510762896109,0.005291510762896109,0.005979752031928695,17.566
3639,-0.0027955635979369352,0.0027955635979369352,0.005979250852719691,17.568
3640,0.0009366192484108714,0.0009366192484108714,0.005968100399793099,17.572
3641,0.005764493547952391,0.005764493547952391,0.005995862199507121,17.578
3642,0.006286101568572652,0.006286101568572652,0.006024971711945396,17.58
3643,0.0030803418248356853,0.0030803418248356853,0.006032671303652614,17.578
3644,0.0019746242075900245,0.0019746242075900245,0.0060217281893400676,17.578
3645,0.0001394104029177213,0.0001394104029177213,0.005988520318512138,17.577
3646,-0.0013805666772993077,0.0013805666772993077,0.0059569162631037025,17.576
3647,-0.0007940095182010069,0.0007940095182010069,0.005916023743998761,17.577
3648,-0.0009629679778395705,0.0009629679778395705,0.005843381313512077,17.577
3649,-0.005306193908425417,0.005306193908425417,0.005480785338338925,17.572
3650,-0.007127164435495425,0.007127164435495425,0.005525795438482115,17.569
3651,-0.007636662113158779,0.007636662113158779,0.005578208747840753,17.567
3652,-0.007922188795092697,0.007922188795092697,0.00562453010610213,17.565
3653,-0.0063050324167165574,0.0063050324167165574,0.005630442343913657,17.565
3654,-0.0030881312912479537,0.0030881312912479537,0.005607021211977481,17.567
3655,-0.001191461505362595,0.001191461505362595,0.005565410454368981,17.568
3656,0.0003614022801117405,0.0003614022801117405,0.005513367068634211,17.569
3657,0.0024422478934878304,0.0024422478934878304,0.0054715230402625535,17.571
3658,0.0022999626247097796,0.0022999626247097796,0.0054340818570576726,17.571
3659,0.0028418717893609153,0.0028418717893609153,0.005421682067584526,17.572
3660,0.0004582302429729738,0.0004582302429729738,0.005409458793584448,17.57
3661,0.0034875176026031075,0.0034875176026031075,0.005420636633971335,17.574
3662,0.005132091435348233,0.005132091435348233,0.005444148590595325,17.577
3663,0.0038511021972989653,0.0038511021972989653,0.005446442839529039,17.577
3664,0.002719638982653143,0.002719638982653143,0.005423687407166743,17.577
3665,2.163698323416315e-05,2.163698323416315e-05,0.005345204248283304,17.575
3666,-0.0022228975915926227,0.0022228975915926227,0.005325395494504609,17.573
3667,-0.0004855744039225194,0.0004855744039225194,0.005293276127513244,17.575
3668,0.0012436061027791404,0.0012436061027791404,0.005264933347640576,17.577
3669,-0.0005616931694351563,0.0005616931694351563,0.005261900258150143,17.575
3670,-0.004599582296483418,0.004599582296483418,0.00528176248593218,17.57
3671,-0.0062100475652112075,0.0062100475652112075,0.0053102902523973925,17.567
3672,-0.005737031751731905,0.005737031751731905,0.005335683018297242,17.566
3673,-0.005265324385275008,0.005265324385275008,0.005356815971863656,17.565
3674,0.013694683574886051,0.013694683574886051,0.0054937011187502485,17.585
3675,-0.002431015372601976,0.002431015372601976,0.005360360036409689,17.568
3676,0.0035918035857435172,0.0035918035857435172,0.005316101651659894,17.574
3677,0.005178089392686579,0.005178089392686579,0.005312781883753037,17.576
3678,0.005492626177494287,0.005492626177494287,0.00533815875689555,17.577
3679,0.007339630643871482,0.007339630643871482,0.005380231163280612,17.58
3680,0.007900478655595369,0.007900478655595369,0.0054329168417703655,17.582
3681,0.005600807311187732,0.005600807311187732,0.0054592737656099025,17.581
3682,0.002607798972455274,0.002607798972455274,0.005456074845996376,17.579
3683,0.0008337741281213814,0.0008337741281213814,0.0054537372425429885,17.578
3684,-0.001576143035053893,0.001576143035053893,0.005425705362750576,17.576
3685,0.0016968705028146355,0.0016968705028146355,0.0054080649551327365,17.58
3686,-0.0023660149687626765,0.0023660149687626765,0.005393757973924184,17.576
3687,-0.005772756315177243,0.005772756315177243,0.005405979359186653,17.572
3688,-0.006819618259033142,0.006819618259033142,0.005430785920329189,17.57
3689,-0.00756627754790936,0.00756627754790936,0.005476638678093163,17.568
3690,-0.0063066737294905995,0.0063066737294905995,0.005473467710825556,17.568
3691,-0.004208704061378777,0.004208704061378777,0.005395400169258767,17.569
3692,-0.002309038966370692,0.002309038966370692,0.005363177084626117,17.57
3693,0.0011289868349406013,0.0011289868349406013,0.005333919914594328,17.573
3694,0.003214092178096154,0.003214092178096154,0.005232471308063954,17.575
3695,0.0031811237775826104,0.0031811237775826104,0.005109553670075752,17.575
3696,0.0039055603157506975,0.0039055603157506975,0.005012208658694549,17.576
3697,0.0017412533028591647,0.0017412533028591647,0.00493608079501342,17.574
3698,0.0023376246490697237,0.0023376246490697237,0.004886292798057241,17.575
3699,0.004486363312079738,0.004486363312079738,0.0048267403102786035,17.578
3700,0.008022451545169632,0.008022451545169632,0.004892842404432195,17.583
3701,0.007510890736332362,0.007510890736332362,0.0049488641882400475,17.584
3702,0.006141528974483451,0.006141528974483451,0.0049804038657092885,17.584
3703,0.0023035771894323823,0.0023035771894323823,0.004978333472303574,17.581
3704,0.0016498092159316323,0.0016498092159316323,0.004951639367631942,17.581
3705,-0.004119174466053843,0.004119174466053843,0.004933164869737113,17.575
3706,-0.006400055899421759,0.006400055899421759,0.004952961832517002,17.572
3707,-0.007371636001844916,0.007371636001844916,0.005000527128448482,17.57
3708,-0.006315904786687173,0.006315904786687173,0.005032545057891233,17.57
3709,-0.005269142376368627,0.005269142376368627,0.005059840348396212,17.57
3710,-0.005148551435015989,0.005148551435015989,0.005062277503774561,17.569
3711,-0.0032319795541752745,0.0032319795541752745,0.005047172487962947,17.57
3712,-0.002434062104332834,0.002434062104332834,0.0049942109716963,17.57
3713,-0.0008955895050950843,0.0008955895050950843,0.004943019224017346,17.571
3714,0.005674480075025013,0.005674480075025013,0.0049704701512056915,17.578
3715,0.016636624464181213,0.016636624464181213,0.005232053185447161,17.591
3716,0.011999559491231823,0.011999559491231823,0.0053662624029444375,17.588
3717,0.0033851384081877885,0.0033851384081877885,0.005376893458913164,17.58
3718,0.005440798471631586,0.005440798471631586,0.005404107583815863,17.583
3719,0.0027574347824062804,0.0027574347824062804,0.005411075948449206,17.581
3720,0.003009947803383215,0.003009947803383215,0.005417277231036452,17.582
3721,0.0014564542164858308,0.0014564542164858308,0.005419167270602167,17.581
3722,0.003651714821908334,0.003651714821908334,0.0054143907719293284,17.584
3723,0.0012162022246991003,0.0012162022246991003,0.005347019950645247,17.582
3724,-0.0052637267361726366,0.0052637267361726366,0.005327113388919171,17.575
3725,-0.005558166247091748,0.005558166247091748,0.005262068013438467,17.574
3726,-0.008368539608273863,0.008368539608273863,0.0052332738892898936,17.57
3727,-0.009864548133947278,0.009864548133947278,0.005259194864751089,17.567
3728,-0.008458421788409446,0.008458421788409446,0.005308241539464498,17.567
3729,-0.008067113989846879,0.008067113989846879,0.005369110001191066,17.566
3730,-0.004182144244552502,0.004182144244552502,0.005385152432018916,17.569
3731,-0.005215189620344458,0.005215189620344458,0.005407143414577148,17.567
3732,-0.0026439132492211753,0.0026439132492211753,0.0053585299807161965,17.569
3733,-0.00046237005918039337,0.00046237005918039337,0.00524634056372593,17.571
3734,0.00047950805741103384,0.00047950805741103384,0.005224909610776271,17.572
3735,0.0003301347857202511,0.0003301347857202511,0.005150113307312183,17.572
3736,0.0018822100381309902,0.0018822100381309902,0.005125524959078188,17.574
3737,0.004063003094858063,0.004063003094858063,0.005130688516168665,17.577
3738,0.004169370812532785,0.004169370812532785,0.005120332051550032,17.578
3739,0.0033674520101788716,0.0033674520101788716,0.005123772622808124,17.578
3740,0.0026844098759088494,0.0026844098759088494,0.005129944824059209,17.578
3741,0.002136581379038726,0.002136581379038726,0.005101930011195819,17.578
3742,0.0035000600501056086,0.0035000600501056086,0.005075139733384679,17.58
3743,0.00037284291447924446,0.00037284291447924446,0.005065920288969257,17.577
3744,-0.004924711970798751,0.004924711970798751,0.005085969410695629,17.571
3745,-0.006828853816717437,0.006828853816717437,0.005131590683056101,17.568
3746,-0.007535313280544564,0.007535313280544564,0.005184782807146603,17.566
3747,-0.0063340640627634085,0.0063340640627634085,0.005222726483518448,17.566
3748,-0.006143316850157275,0.006143316850157275,0.005257851487784321,17.565
3749,-0.00510988516354099,0.00510988516354099,0.005255906638583247,17.565
3750,0.0019323280454252153,0.0019323280454252153,0.0052109431757935065,17.572
3751,0.003619357785831422,0.003619357785831422,0.005167372659956117,17.574
3752,0.002351207172448095,0.002351207172448095,0.005111693575077515,17.573
3753,0.005554272916974202,0.005554272916974202,0.005102977203955804,17.577
3754,0.003855473251836757,0.003855473251836757,0.005108195134813181,17.576
3755,0.007589080271050172,0.007589080271050172,0.005162887091903701,17.581
3756,0.025843915995799407,0.025843915995799407,0.005773489148482444,17.603
3757,0.02065253176102239,0.02065253176102239,0.006126891698186973,17.601
3758,0.009928130482408697,0.009928130482408697,0.006202546360110432,17.592
3759,-0.0029562800248760616,0.0029562800248760616,0.006203081082212478,17.579
3760,-0.006213455242736977,0.006213455242736977,0.006233954236556564,17.575
3761,-0.007185455965611712,0.007185455965611712,0.006265529938284096,17.573
3762,-0.010576962763289083,0.010576962763289083,0.006333419549934033,17.568
3763,-0.013464696159668787,0.013464696159668787,0.006463503209627747,17.563
3764,-0.011523469931660769,0.011523469931660769,0.006559787570612895,17.563
3765,-0.010684089732053986,0.010684089732053986,0.00664622494533572,17.562
3766,-0.008206019472776762,0.008206019472776762,0.006693002378817121,17.563
3767,-0.0069800471107925935,0.0069800471107925935,0.006729125767477008,17.563
3768,-0.006886577068951148,0.006886577068951148,0.006763129266131202,17.562
3769,-0.006924898016915062,0.006924898016915062,0.006798257468181182,17.561
3770,-0.0035517156733546234,0.0035517156733546234,0.006791972458196772,17.564
3771,-0.0015955273932509555,0.0015955273932509555,0.006765404647314733,17.566
3772,1.746456035950101e-05,1.746456035950101e-05,0.00674103610425079,17.568
3773,0.003127769536101591,0.003127769536101591,0.006727715865931067,17.572
3774,0.0022911347183815333,0.0022911347183815333,0.00659084290311306,17.572
3775,0.005103041981970613,0.005103041981970613,0.006606097349479122,17.576
3776,0.006747996628195264,0.006747996628195264,0.006630751559646223,17.579
3777,0.006525068862139947,0.006525068862139947,0.006642627897505698,17.58
3778,0.0029272760236254084,0.0029272760236254084,0.006626349327544462,17.577
3779,0.0043404209526183585,0.0043404209526183585,0.0065998633448900775,17.579
3780,0.004858577587465133,0.004858577587465133,0.006570394075174081,17.58
3781,0.0036942656022842645,0.0036942656022842645,0.006556894376235927,17.579
3782,0.001026009061704373,0.001026009061704373,0.006552509797951769,17.576
3783,-0.0003499708446314861,0.0003499708446314861,0.006552072775481634,17.574
3784,-0.003289748421005257,0.003289748421005257,0.006558432726900016,17.57
3785,-0.0032380435412590084,0.0032380435412590084,0.00656422846936263,17.569
3786,-0.003263326721030262,0.003263326721030262,0.006568074919072457,17.568
3787,-0.003405122283153313,0.003405122283153313,0.006551512006051484,17.567
3788,-0.0028026147553315253,0.0028026147553315253,0.0065219463450809975,17.567
3789,-0.0033356417923676124,0.0033356417923676124,0.006486490856423471,17.566
3790,0.0004322514050169174,0.0004322514050169174,0.006455903554726807,17.57
3791,0.004457595115204492,0.004457595115204492,0.006457573875015486,17.575
3792,0.002553869478826476,0.002553869478826476,0.006458495663461357,17.574
3793,0.005211484074331869,0.005211484074331869,0.006478504131725518,17.578
3794,0.006633266988214498,0.006633266988214498,0.0065044380394359185,17.581
3795,0.007031227753086747,0.007031227753086747,0.006534592593355437,17.583
3796,0.004823058006991484,0.004823058006991484,0.006540717486080875,17.582
3797,0.003913285847576903,0.003913285847576903,0.0065500995155284005,17.582
3798,0.01302047785338933,0.01302047785338933,0.006674165656367246,17.593
3799,0.022108848159749513,0.022108848159749513,0.007016496584511452,17.605
3800,-0.0015192686974661324,0.0015192686974661324,0.006972138036948633,17.581
3801,-0.002641194142079816,0.002641194142079816,0.0069365937660134215,17.579
3802,-0.00876703205419547,0.00876703205419547,0.006964751094163019,17.571
3803,-0.009630493958432846,0.009630493958432846,0.007027243930859548,17.568
3804,-0.008597545373926688,0.008597545373926688,0.007077719719223128,17.567
3805,-0.005096934399416629,0.005096934399416629,0.007084082710117208,17.569
3806,-0.003924084810416579,0.003924084810416579,0.007066017626967665,17.569
3807,-0.0022066545058072144,0.0022066545058072144,0.007030923706900879,17.57
3808,-0.0035856896213393233,0.0035856896213393233,0.007011672649241522,17.568
3809,-0.0006299848988657584,0.0006299848988657584,0.006992130114351789,17.571
3810,0.0008415099161893135,0.0008415099161893135,0.006973656795872993,17.573
3811,0.0045781393975639776,0.0045781393975639776,0.006981190857702916,17.578
3812,0.005058788373876609,0.005058788373876609,0.006995262154237966,17.58
3813,0.007171542715170313,0.007171542715170313,0.007031357056077635,17.584
3814,0.006383168441864606,0.006383168441864606,0.007037430866616477,17.585
3815,0.005781608974437744,0.005781608974437744,0.006862356045128918,17.586
3816,0.0036530722379274376,0.0036530722379274376,0.006766497290181711,17.585
3817,0.00024227806825143604,0.00024227806825143604,0.006758067841049994,17.582
3818,0.00015991682047465693,0.00015991682047465693,0.006736149775505273,17.582
3819,0.00035815922243655435,0.00035815922243655435,0.0067305989415900914,17.582
3820,0.0007818542073872556,0.0007818542073872556,0.0067243198328722316,17.582
3821,-0.0021771109457525183,0.0021771109457525183,0.006726266627677853,17.578
3822,-0.003754262756185197,0.003754262756185197,0.00672683115765753,17.575
3823,-0.004196916640251715,0.004196916640251715,0.006738813474045022,17.573
3824,-0.007265900437551072,0.007265900437551072,0.006757401271060036,17.568
3825,-0.006541979693912268,0.006541979693912268,0.006766203869303399,17.567
3826,-0.005213393558188993,0.005213393558188993,0.006734462485837268,17.567
3827,-0.003412931486065915,0.003412931486065915,0.006670560162952258,17.568
3828,0.0005358519262372652,0.0005358519262372652,0.006616932466704475,17.572
3829,-0.0007028447848447029,0.0007028447848447029,0.006567948834727002,17.571
3830,0.0032489600966049146,0.0032489600966049146,0.006562667598458927,17.576
3831,0.002977282520634126,0.002977282520634126,0.006548684302375395,17.577
3832,0.0017214606507964226,0.0017214606507964226,0.006545609031038,17.577
3833,-0.0011921263765987565,0.0011921263765987565,0.006546531247879887,17.575
3834,-0.0028165515676704033,0.0028165515676704033,0.006552411901508485,17.574
3835,-0.0005695280351813564,0.0005695280351813564,0.006552576245957859,17.577
3836,0.0007312088295809674,0.0007312088295809674,0.006550280526537726,17.579
3837,-0.00228428050158015,0.00228428050158015,0.006541656855029166,17.576
3838,-0.0037623581704245308,0.0037623581704245308,0.006539188884659296,17.574
3839,-0.0038912092205615778,0.0038912092205615778,0.006542095156050922,17.573
3840,0.0042038501664924165,0.0042038501664924165,0.0065500894672690805,17.581
3841,2.2802003277733705e-05,2.2802003277733705e-05,0.006546604266996008,17.576
3842,-0.011483212660018288,0.011483212660018288,0.006637331162075532,17.562
3843,-0.009179847728178132,0.009179847728178132,0.00670040826217295,17.562
3844,-0.008977547955545104,0.008977547955545104,0.006742322053475595,17.56
3845,-0.0018776638575108487,0.0018776638575108487,0.006710277970687983,17.566
3846,-0.000285434680234958,0.000285434680234958,0.006667895898340624,17.567
3847,-0.0018182003192815943,0.0018182003192815943,0.006640232718783745,17.565
3848,0.002720575065149616,0.002720575065149616,0.006617348594961811,17.57
3849,0.0019971976948064034,0.0019971976948064034,0.00660061217992079,17.57
3850,0.009062092013275508,0.009062092013275508,0.0066597265221282195,17.579
3851,0.009778527612501363,0.009778527612501363,0.0067213953807527165,17.582
3852,0.005887255363700045,0.005887255363700045,0.006743031356140974,17.58
3853,0.0015839254721115772,0.0015839254721115772,0.006721983382347065,17.577
3854,-0.00032981275918628986,0.00032981275918628986,0.006710998555889804,17.576
3855,-0.0027090890237820037,0.0027090890237820037,0.006673451270290237,17.574
3856,-0.0027812692432831435,0.0027812692432831435,0.006158995575822029,17.574
3857,-0.0016721586380728684,0.0016721586380728684,0.005804818426678285,17.575
3858,-0.003052165969655951,0.003052165969655951,0.005727424935257528,17.573
3859,-0.004872008962783767,0.004872008962783767,0.005740502171978453,17.57
3860,-0.007125633476868993,0.007125633476868993,0.005751090457506398,17.566
3861,-0.006296453581092595,0.006296453581092595,0.005740660846372326,17.565
3862,-0.004615054808580345,0.004615054808580345,0.005661223617644351,17.565
3863,-0.004049173470264318,0.004049173470264318,0.00551365853859079,17.564
3864,-0.002788593828330314,0.002788593828330314,0.005399100799476728,17.564
3865,0.0007702497299057545,0.0007702497299057545,0.0052928937789595435,17.567
3866,0.004521448443621467,0.004521448443621467,0.005248406611511344,17.571
3867,0.00399079079017215,0.00399079079017215,0.005217070585527512,17.571
3868,0.005885083902087623,0.005885083902087623,0.00520479761205529,17.574
3869,0.007289614232603848,0.007289614232603848,0.005209775505106867,17.577
3870,0.006553062661324251,0.006553062661324251,0.005238801415762999,17.578
3871,0.004897589845061651,0.004897589845061651,0.005259224948609707,17.578
3872,0.004293641439982676,0.004293641439982676,0.005276722238105911,17.579
3873,0.003823220169134201,0.003823220169134201,0.0052813008132493785,17.58
3874,0.0035563892756540344,0.0035563892756540344,0.005288300704749181,17.581
3875,0.0053074330501037565,0.0053074330501037565,0.005290312129257259,17.584
3876,0.002694373225550929,0.002694373225550929,0.005254012210759581,17.582
3877,-0.007264389130339172,0.007264389130339172,0.005263705212929767,17.571
3878,-0.006889208819140983,0.006889208819140983,0.005300520267009303,17.57
3879,-0.005426615942916247,0.005426615942916247,0.005310518257800855,17.57
3880,-0.003077115017262275,0.003077115017262275,0.005297191026666552,17.571
3881,0.0043852891078616715,0.0043852891078616715,0.005302458335073435,17.578
3882,0.003873672365465418,0.003873672365465418,0.005315598820941292,17.577
3883,-0.006384408511262395,0.006384408511262395,0.005353687771028333,17.565
3884,-0.0005349696912353768,0.0005349696912353768,0.005343838529430756,17.57
3885,-0.0018086903856773398,0.0018086903856773398,0.005337084838935033,17.568
3886,-0.0005491110992460237,0.0005491110992460237,0.005327381795507192,17.569
3887,0.0029199716798435664,0.0029199716798435664,0.005324500968502124,17.573
3888,0.003922938321083751,0.003922938321083751,0.005331571861995513,17.575
3889,0.002800006111700304,0.002800006111700304,0.005328488885247675,17.575
3890,0.0034110986114652218,0.0034110986114652218,0.00533922104101413,17.577
3891,0.002977789013200426,0.002977789013200426,0.00532890721037329,17.578
3892,0.0017183006368968034,0.0017183006368968034,0.005325556791022627,17.578
3893,-0.00017589132335551778,0.00017589132335551778,0.005300025363091519,17.577
3894,-0.004314340081926294,0.004314340081926294,0.005276021402863069,17.573
3895,-0.004175769919850879,0.004175769919850879,0.005245606804798348,17.573
3896,-0.0046623975531525945,0.0046623975531525945,0.005244154018961982,17.572
3897,-0.010110970900235463,0.010110970900235463,0.005326380632174229,17.565
3898,-0.010218511431872858,0.010218511431872858,0.005264900945158217,17.563
3899,-0.010101463322540576,0.010101463322540576,0.004883806497537102,17.561
3900,-0.003673721097055946,0.003673721097055946,0.004895247327625454,17.566
3901,-0.001510106883167604,0.001510106883167604,0.004890449014318469,17.567
3902,-0.0005310619994287865,0.0005310619994287865,0.0048115177771393455,17.567
3903,0.0028616414744973,0.0028616414744973,0.0047228306237022165,17.57
3904,0.003888550049344923,0.003888550049344923,0.004660167320008455,17.571
3905,0.004557155526323067,0.004557155526323067,0.004654572881872856,17.572
3906,0.004005267694487816,0.004005267694487816,0.004655264330810641,17.572
3907,0.006804145616746284,0.006804145616746284,0.004699548566019584,17.576
3908,0.004621644536202064,0.004621644536202064,0.004708585881765457,17.575
3909,0.006068081787349535,0.006068081787349535,0.00474710736786231,17.578
3910,0.004585392543027996,0.004585392543027996,0.004768459417920923,17.578
3911,0.0032587937756934004,0.0032587937756934004,0.00475760538355678,17.578
3912,0.00303411044837279,0.00303411044837279,0.004740353768408115,17.579
3913,0.0020838958545776783,0.0020838958545776783,0.004690423202636746,17.579
3914,-0.001211237565518147,0.001211237565518147,0.004648364485565026,17.576
3915,-0.00564188286989884,0.00564188286989884,0.004646647263404637,17.571
3916,-0.0075185396768788874,0.0075185396768788874,0.004692884593880256,17.568
3917,-0.007162872834154576,0.007162872834154576,0.004747172452864736,17.567
3918,-0.004884229386997173,0.004884229386997173,0.004772205730099149,17.568
3919,-0.00451016665846592,0.00451016665846592,0.0047933371238602,17.567
3920,-0.0041133720651331885,0.0041133720651331885,0.004810318712977598,17.566
3921,-0.0011217283204974322,0.0011217283204974322,0.004806698528509081,17.568
3922,0.0005391952270795953,0.0005391952270795953,0.004792318141617439,17.569
3923,0.014222320866178546,0.014222320866178546,0.004981256486653622,17.584
3924,0.0012996123674571536,0.0012996123674571536,0.00492969299421386,17.571
3925,0.0029813539734404003,0.0029813539734404003,0.004895179542079647,17.573
3926,0.007775474869566165,0.007775474869566165,0.004929053470976145,17.579
3927,0.0064823689574176465,0.0064823689574176465,0.004959767956210966,17.579
3928,0.003415130239059155,0.003415130239059155,0.004971222983540966,17.577
3929,0.0032657419524223293,0.0032657419524223293,0.004981442436600891,17.578
3930,-0.001324492576686756,0.001324492576686756,0.004972600339654484,17.574
3931,-0.002678172756872838,0.002678172756872838,0.0049708991258133285,17.573
3932,-0.002008626813715131,0.002008626813715131,0.0049719764347849705,17.574
3933,-0.004813354502558235,0.004813354502558235,0.004993798337012841,17.571
3934,-0.0035637283748595617,0.0035637283748595617,0.004998569175545793,17.572
3935,-0.0049202394196626465,0.0049202394196626465,0.005022403581987014,17.57
3936,-0.01122029169524787,0.01122029169524787,0.005145691453448788,17.562
3937,-0.0103953178845625,0.0103953178845625,0.005244672296646184,17.561
3938,-0.006886652992706195,0.006886652992706195,0.005276295481073993,17.563
3939,-0.0046132397903455215,0.0046132397903455215,0.005282111199629584,17.564
3940,-0.0061399890493910635,0.0061399890493910635,0.005301034787500976,17.561
3941,-0.004880340792913833,0.004880340792913833,0.005323452064359345,17.561
3942,-0.0003442695862639483,0.0003442695862639483,0.005198238679308598,17.565
3943,0.003489556890470393,0.003489556890470393,0.005128426600513351,17.569
3944,0.00844560589531269,0.00844560589531269,0.005119382610559715,17.575
3945,0.006426894057534925,0.006426894057534925,0.005156148928216771,17.574
3946,0.008018059990592534,0.008018059990592534,0.00521804081054485,17.577
3947,0.007513267065244662,0.007513267065244662,0.005268717414745082,17.578
3948,0.006982286284381691,0.006982286284381691,0.005307814157179734,17.579
3949,0.005601616097023334,0.005601616097023334,0.005333552678076829,17.579
3950,0.004417787767707021,0.004417787767707021,0.005274536713385814,17.579
3951,0.004346590873819722,0.004346590873819722,0.005201295034932553,17.58
3952,-0.0017713156335546184,0.0017713156335546184,0.005170903970678302,17.574
3953,-0.0034474596423481473,0.0034474596423481473,0.005179962302451707,17.572
3954,-0.00474200758318753,0.00474200758318753,0.005201517860149059,17.57
3955,-0.0048252170083941445,0.0048252170083941445,0.005216821216779701,17.569
3956,-0.004753918390273907,0.004753918390273907,0.005231048310082823,17.568
3957,-0.004587847625597564,0.004587847625597564,0.00524846536957886,17.567
3958,-0.0026220153339818284,0.0026220153339818284,0.00524613964822913,17.568
3959,-0.0008986498184713632,0.0008986498184713632,0.005224240826220551,17.569
3960,-0.0020946974216753842,0.0020946974216753842,0.005179654743201188,17.567
3961,0.0020512330911319596,0.0020512330911319596,0.005145332404589579,17.571
3962,0.004667798123707701,0.004667798123707701,0.005145808161804563,17.574
3963,0.0041514583026790175,0.0041514583026790175,0.005146623129835753,17.574
3964,0.013253986042583361,0.013253986042583361,0.005307226068798679,17.585
3965,0.027288408910054424,0.027288408910054424,0.0059671842863527735,17.603
3966,0.022710471118060963,0.022710471118060963,0.006368713239819721,17.602
3967,0.008905791437615863,0.008905791437615863,0.0064182844616804645,17.59
3968,-0.0032145589438942364,0.0032145589438942364,0.0063993255267833105,17.578
3969,-0.003188964075836311,0.003188964075836311,0.006365663937085309,17.578
3970,-0.003941055101257215,0.003941055101257215,0.00634409727310257,17.577
3971,-0.007122302220189591,0.007122302220189591,0.006365137723320693,17.573
3972,-0.006242484175452206,0.006242484175452206,0.006381246802584623,17.573
3973,-0.005336438312867597,0.005336438312867597,0.006392097963075201,17.573
3974,-0.007963989088433595,0.007963989088433595,0.006431694064922334,17.569
3975,-0.0066571385874231994,0.0066571385874231994,0.006444235798810083,17.569
3976,-0.004584542727833834,0.004584542727833834,0.0064549019264519515,17.57
3977,-0.005419232318139575,0.005419232318139575,0.006436748105598267,17.568
3978,-0.0035482518037366385,0.0035482518037366385,0.006409603349819144,17.569
3979,-0.0028724495672873473,0.0028724495672873473,0.006393046469505737,17.569
3980,0.0002597195254236354,0.0002597195254236354,0.00638568957398369,17.572
3981,0.001998583358578336,0.001998583358578336,0.006373748275865667,17.574
3982,0.0025112429044200826,0.0025112429044200826,0.006366920536444669,17.575
3983,0.00196002266246113,0.00196002266246113,0.006337861412605019,17.575
3984,0.003151823183841077,0.003151823183841077,0.006345468087817026,17.577
3985,0.004142859562438957,0.004142859562438957,0.0063564049979475635,17.579
3986,0.003230861857006806,0.003230861857006806,0.006364373806693808,17.579
3987,0.002458045199770444,0.002458045199770444,0.006362421824058861,17.579
3988,0.0018486254203917219,0.0018486254203917219,0.006353006467492333,17.579
3989,0.002300009840640664,0.002300009840640664,0.006350999235271112,17.58
3990,0.0019384337642929187,0.0019384337642929187,0.006344793976452533,17.58
3991,0.0008726742177720577,0.0008726742177720577,0.006338403105866699,17.579
3992,-0.0025824512548555754,0.0025824512548555754,0.006341334158243838,17.575
3993,-0.006385938187080335,0.006385938187080335,0.006373383057233095,17.57
3994,-0.0043387734441328665,0.0043387734441328665,0.006373548920405007,17.571
3995,-0.007798880155490491,0.007798880155490491,0.006407494097801226,17.566
3996,-0.007307663874572405,0.007307663874572405,0.006432155207778994,17.565
3997,-0.005159955532510723,0.005159955532510723,0.006373111853912437,17.566
3998,-0.0033690365000334215,0.0033690365000334215,0.006299672929052081,17.567
3999,-0.00015804986129283605,0.00015804986129283605,0.006218177642850987,17.57
4000,0.0007460868552585961,0.0007460868552585961,0.006207764282494803,17.571
4001,0.004923925738113392,0.004923925738113392,0.006225430395223841,17.576
4002,0.005806330597108218,0.005806330597108218,0.00625222345148777,17.578
4003,0.007358993940205144,0.007358993940205144,0.006288875582023211,17.581
4004,0.010428236279061493,0.010428236279061493,0.006362878985979893,17.586
4005,0.006926785115154803,0.006926785115154803,0.006384227114195488,17.584
4006,0.014499020828661387,0.014499020828661387,0.006534535194065706,17.594
4007,0.014175403818480453,0.014175403818480453,0.0066518123065007154,17.596
4008,-0.000997759597382573,0.000997759597382573,0.006636487491200898,17.581
4009,-0.007089041103726537,0.007089041103726537,0.006646600265759149,17.574
4010,-0.007840995253154376,0.007840995253154376,0.006676964048926199,17.572
4011,-0.00568778123471412,0.00568778123471412,0.006693217469623081,17.573
4012,-0.0063234401954471615,0.0063234401954471615,0.006716171587488837,17.571
4013,-0.005924555745409419,0.005924555745409419,0.006739030952671882,17.57
4014,-0.0055569199582162845,0.0055569199582162845,0.006760818057815837,17.569
4015,-0.0026236482636094313,0.0026236482636094313,0.006742342893225139,17.571
4016,-0.0019091506364232163,0.0019091506364232163,0.006703010656609541,17.571
4017,-0.0014197844200300445,0.0014197844200300445,0.0066661414827643714,17.571
4018,-0.00027201594475428047,0.00027201594475428047,0.006648279869855504,17.572
4019,0.0005597072565559269,0.0005597072565559269,0.006633199975666718,17.573
4020,0.0037725046946063155,0.0037725046946063155,0.006631173466018743,17.577
4021,0.002915612629713485,0.002915612629713485,0.006636632185246251,17.577
4022,0.006478133119592659,0.006478133119592659,0.006667956323677368,17.582
4023,0.0060220129211984805,0.0060220129211984805,0.006542288882531437,17.583
4024,0.0038611115260556985,0.0038611115260556985,0.006552383972387787,17.582
4025,0.006448882232306855,0.006448882232306855,0.006577289094065769,17.586
4026,0.0026553272699793174,0.0026553272699793174,0.006536563268381246,17.583
4027,-0.003169701425043899,0.003169701425043899,0.0065120594561006,17.577
4028,-0.002800623320632556,0.002800623320632556,0.006509126064544501,17.577
4029,-0.0031739040943442186,0.0031739040943442186,0.006508671760899871,17.576
4030,-0.004219199346133011,0.004219199346133011,0.006520987786869604,17.574
4031,-0.004123274578754118,0.004123274578754118,0.006528519706324243,17.573
4032,-0.0030740150978834056,0.0030740150978834056,0.0065326655683049,17.573
4033,-0.0030127075413339385,0.0030127075413339385,0.006521870872605461,17.572
4034,-0.0029953894709344457,0.0029953894709344457,0.006519012322466307,17.571
4035,-0.003956029573669364,0.003956029573669364,0.006512444686972551,17.569
4036,-0.000519484184331081,0.000519484184331081,0.006415269673348909,17.572
4037,0.000560593676482631,0.000560593676482631,0.006330734656837254,17.573
4038,0.0022059021773811957,0.0022059021773811957,0.006297031161191959,17.575
4039,0.006120643413533491,0.006120643413533491,0.0063098656395636984,17.58
4040,0.006750800839481308,0.006750800839481308,0.006316101871710398,17.582
4041,0.006304974625236815,0.006304974625236815,0.006328703867422033,17.583
4042,0.006737752230745601,0.006737752230745601,0.006364375890633073,17.585
4043,0.003585828201896419,0.003585828201896419,0.006364911000421638,17.583
4044,0.0026491724805338046,0.0026491724805338046,0.006314189623555437,17.583
4045,0.003713620128700305,0.003713620128700305,0.006292364474070955,17.585
4046,-0.0013774088866993907,0.0013774088866993907,0.006242590036742316,17.58
4047,0.0014051591281313497,0.0014051591281313497,0.006198804987144799,17.583
4048,0.010227212334396309,0.010227212334396309,0.006243686312781005,17.593
4049,-0.007477085549925889,0.007477085549925889,0.00626329831850868,17.574
4050,-0.009627756064801986,0.009627756064801986,0.006321445578936985,17.57
4051,-0.0034584683629639316,0.0034584683629639316,0.006315960395648032,17.575
4052,-0.0015339514846932096,0.0015339514846932096,0.00631533927831527,17.576
4053,-0.0007557659445424827,0.0007557659445424827,0.006306375523389385,17.576
4054,-0.0019293153617987555,0.0019293153617987555,0.006291480625454344,17.574
4055,-0.00044906670234310503,0.00044906670234310503,0.006273110701854222,17.575
4056,0.000674764989489483,0.000674764989489483,0.006255435520810244,17.576
4057,0.0032335043125285338,0.0032335043125285338,0.006246962909930626,17.579
4058,0.0061701834670820355,0.0061701834670820355,0.006271882300721777,17.583
4059,0.007693096850677162,0.007693096850677162,0.006318248908572983,17.586
4060,0.007131537714426344,0.007131537714426344,0.006354917780705176,17.587
4061,0.003027764630403603,0.003027764630403603,0.0063588189166033406,17.584
4062,-0.0005880179072811232,0.0005880179072811232,0.006341936003422648,17.581
4063,-0.001059487787125441,0.001059487787125441,0.006329220438160634,17.581
4064,0.0012865602437249486,0.0012865602437249486,0.006190226350245011,17.584
4065,0.000846969437636558,0.000846969437636558,0.005556932897842765,17.584
4066,-0.004664038097017607,0.004664038097017607,0.0050930718393508555,17.578
4067,-0.0057813098006016805,0.0057813098006016805,0.005047819824398541,17.576
4068,-0.004815204334967453,0.004815204334967453,0.005060534854679701,17.576
4069,-0.005584855641014906,0.005584855641014906,0.005081262069798026,17.574
4070,-0.004390283665312724,0.004390283665312724,0.005084943556764005,17.574
4071,-0.004177069379213736,0.004177069379213736,0.00505211422795509,17.573
4072,-0.004002703809147187,0.004002703809147187,0.005029352688302556,17.572
4073,-0.0030369658062122384,0.0030369658062122384,0.005010174082579044,17.572
4074,0.0003405832799336702,0.0003405832799336702,0.004946590046228369,17.575
4075,0.0004956365624613646,0.0004956365624613646,0.004901839930041012,17.575
4076,0.003101172315065974,0.003101172315065974,0.004890197038646648,17.578
4077,0.005207314054338813,0.005207314054338813,0.00488789397227619,17.581
4078,0.006008854747580667,0.006008854747580667,0.004911890667488633,17.583
4079,0.003933124943499307,0.003933124943499307,0.004919233170160528,17.582
4080,0.0002640168430334952,0.0002640168430334952,0.004919235457774185,17.579
4081,0.001439817910826844,0.001439817910826844,0.004917282266737828,17.581
4082,0.004278426262954668,0.004278426262954668,0.004929467597459153,17.585
4083,0.003326914270966449,0.003326914270966449,0.004936792226911084,17.585
4084,-2.6051467019102235e-05,2.6051467019102235e-05,0.004926721464083093,17.582
4085,-0.0019206148000245227,0.0019206148000245227,0.00491302749261765,17.58
4086,-0.002518935837411001,0.002518935837411001,0.004908859830689423,17.579
4087,-0.003751828668924254,0.003751828668924254,0.004917036420337424,17.577
4088,-0.002915403386236567,0.002915403386236567,0.004922201618028286,17.577
4089,0.01295606219890312,0.01295606219890312,0.005084659653592195,17.594
4090,0.007517172353027058,0.007517172353027058,0.005136269788487939,17.589
4091,-0.0052070463293359195,0.0052070463293359195,0.0051618586819079815,17.575
4092,-0.00404848072887562,0.00404848072887562,0.005171266427991554,17.575
4093,-0.00399806131584962,0.00399806131584962,0.00514723608811888,17.574
4094,-0.0005503950703650111,0.0005503950703650111,0.005129212331749685,17.577
4095,0.004963835197671158,0.004963835197671158,0.0050938188450387984,17.583
4096,0.004322550912812622,0.004322550912812622,0.0050596260115717715,17.583
4097,0.006232499106725596,0.006232499106725596,0.005071686545632738,17.586
4098,0.005990944040818557,0.005990944040818557,0.0050958232360207275,17.587
4099,0.004784025493458224,0.004784025493458224,0.005118206097296473,17.587
4100,0.0027820860662531527,0.0027820860662531527,0.005125218749209373,17.586
4101,0.0019074675359477562,0.0019074675359477562,0.005105076013587818,17.586
4102,-0.002339076369652301,0.002339076369652301,0.005077339769713191,17.582
4103,-0.0024283024464958995,0.0024283024464958995,0.005029592204812236,17.582
4104,-0.0067822561538535735,0.0067822561538535735,0.00496682057388361,17.577
4105,-0.006025066253951491,0.006025066253951491,0.004955049679517176,17.577
4106,-0.006961408581557171,0.006961408581557171,0.004789040965681697,17.575
4107,-0.008518262783323469,0.008518262783323469,0.00465307432191504,17.572
4108,-0.007115920703266139,0.007115920703266139,0.0047061139677737444,17.572
4109,-0.003157237158895848,0.003157237158895848,0.0046631153861712476,17.575
4110,-0.0031906963001392978,0.0031906963001392978,0.0046077802104640755,17.574
4111,-0.0005964932677060778,0.0005964932677060778,0.004572929909411348,17.576
4112,0.0016087822839398953,0.0016087822839398953,0.004531855117025046,17.578
4113,0.0016666911320956754,0.0016666911320956754,0.004496052244714193,17.578
4114,0.005116185735161989,0.005116185735161989,0.004490817938610522,17.582
4115,0.0044653249519957736,0.0044653249519957736,0.004505330368008966,17.582
4116,0.005520566543959242,0.005520566543959242,0.004535010442440136,17.584
4117,0.00809642722333416,0.00809642722333416,0.004604528550554871,17.588
4118,0.009390109669053348,0.009390109669053348,0.004699221727275851,17.591
4119,0.006065225243791073,0.006065225243791073,0.00473787100843303,17.589
4120,0.004918590841794796,0.004918590841794796,0.004748371208586353,17.589
4121,0.001315180532149512,0.001315180532149512,0.004741235931989446,17.586
4122,-0.0008710979695479674,0.0008710979695479674,0.004697578545629834,17.584
4123,-0.0008994477669330273,0.0008994477669330273,0.004659687528041478,17.584
4124,-0.0034372159367632477,0.0034372159367632477,0.00465636667056819,17.581
4125,-0.004645884243446825,0.004645884243446825,0.004634836799106494,17.579
4126,-0.00470249682390738,0.00470249682390738,0.004651057867736475,17.578
4127,-0.0055442048981733,0.0055442048981733,0.004673248473741087,17.576
4128,-0.007115187500920722,0.007115187500920722,0.004718800199120034,17.573
4129,-0.0005337424400659041,0.0005337424400659041,0.004708416661377538,17.579
4130,0.006093281618635138,0.006093281618635138,0.004728895413810024,17.586
4131,0.006532133381584181,0.006532133381584181,0.004755956850874862,17.587
4132,-0.002028255124284126,0.002028255124284126,0.004750343994665569,17.578
4133,-0.0025988813150371057,0.0025988813150371057,0.004747899097627878,17.577
4134,0.001195900472879229,0.001195900472879229,0.0047399497929661765,17.581
4135,-8.702188176157137e-06,8.702188176157137e-06,0.00472341223028897,17.58
4136,0.0005967952534543276,0.0005967952534543276,0.004723503583656011,17.581
4137,0.003704605110357109,0.003704605110357109,0.00473767711461502,17.585
4138,0.0037430795277169143,0.0037430795277169143,0.004747318278954265,17.586
4139,0.001125254720385692,0.001125254720385692,0.004709041310669771,17.584
4140,-0.00024868701918066404,0.00024868701918066404,0.00466046729397237,17.583
4141,-0.0004923043183863479,0.0004923043183863479,0.004617883929177558,17.583
4142,-0.004134428804026946,0.004134428804026946,0.0045871357018822615,17.579
4143,-0.003676071448966091,0.003676071448966091,0.004587849967198879,17.579
4144,-0.0057992242413792685,0.0057992242413792685,0.004616762522723968,17.576
4145,-0.0057835171146712865,0.0057835171146712865,0.004638003573606068,17.575
4146,-0.006563646848401099,0.006563646848401099,0.0046821917085779746,17.573
4147,-0.001006307177721798,0.001006307177721798,0.004681164493529571,17.578
4148,-0.00406131916933792,0.00406131916933792,0.004586096971075296,17.574
4149,-0.0023495618943865488,0.0023495618943865488,0.004530830139814605,17.575
4150,-1.981332689030956e-05,1.981332689030956e-05,0.004427356865342835,17.577
4151,0.0028223332401718965,0.0028223332401718965,0.0044228423471912165,17.58
4152,0.005210920138477365,0.005210920138477365,0.004450791080631607,17.583
4153,0.00454278282076109,0.00454278282076109,0.004473276000803728,17.583
4154,0.006499044408462019,0.006499044408462019,0.004516121276487765,17.586
4155,0.005477364707497494,0.005477364707497494,0.004548994396160908,17.586
4156,0.006286372068939837,0.006286372068939837,0.00459172970418386,17.588
4157,0.0069711739567577865,0.0069711739567577865,0.004633076606127592,17.59
4158,0.007583978035154859,0.007583978035154859,0.004654014871747764,17.592
4159,0.007286524548932496,0.007286524548932496,0.00464746720643969,17.593
4160,0.0044544626722948155,0.0044544626722948155,0.00461397719003878,17.591
4161,0.002072054562575927,0.002072054562575927,0.00460869244197634,17.589
4162,0.0027497306261900518,0.0027497306261900518,0.004616513680181516,17.59
4163,-0.0009552677028826107,0.0009552677028826107,0.00461628625406117,17.586
4164,-0.005873239869811985,0.005873239869811985,0.004651719668306579,17.58
4165,-0.00569517465505137,0.00569517465505137,0.004685688043792796,17.579
4166,-0.0037280078209873347,0.0037280078209873347,0.004677298403263562,17.58
4167,-0.0037683994377964913,0.0037683994377964913,0.0046567041205443135,17.579
4168,-0.005615963377370559,0.005615963377370559,0.004665664131179951,17.576
4169,-0.003786159287632104,0.003786159287632104,0.004647565565022471,17.577
4170,-0.0014071485926118394,0.0014071485926118394,0.004628922168948233,17.579
4171,0.0005507319078607489,0.0005507319078607489,0.004610365974251515,17.581
4172,0.01008806187454281,0.01008806187454281,0.004702440638917683,17.592
4173,0.007735591810906997,0.007735591810906997,0.004755955230667467,17.591
4174,0.004686425987835221,0.004686425987835221,0.00477886765581577,17.589
4175,0.001951802081526531,0.001951802081526531,0.004782594989065679,17.587
4176,0.001306832660585437,0.001306832660585437,0.004774318825569419,17.587
4177,-0.0018775203725952129,0.0018775203725952129,0.004749548386854955,17.584
4178,-0.0037193990661248937,0.0037193990661248937,0.0047260433577605045,17.582
4179,-0.0025844031723006537,0.0025844031723006537,0.004716734304451587,17.583
4180,-0.005887341472598773,0.005887341472598773,0.004753261337861212,17.579
4181,-0.006898213750783266,0.006898213750783266,0.004800897428539557,17.577
4182,-0.01032224805248328,0.01032224805248328,0.004891937740308259,17.572
4183,-0.009701597147787178,0.009701597147787178,0.00497610099792681,17.571
4184,-0.006443871495436338,0.006443871495436338,0.005017649763910972,17.573
4185,-2.6137934550000616e-05,2.6137934550000616e-05,0.005013973311964407,17.579
4186,0.0029401795586365084,0.0029401795586365084,0.0050162659971269095,17.582
4187,0.0037231702767040135,0.0037231702767040135,0.005016052465775785,17.583
4188,0.006982912956201386,0.006982912956201386,0.005056025840906016,17.587
4189,0.006218074306620163,0.006218074306620163,0.004926605962294673,17.587
4190,0.0036816473865238534,0.0036816473865238534,0.004882818118735661,17.585
4191,0.006667319652089972,0.006667319652089972,0.00490054190670034,17.589
4192,0.010101146902822905,0.010101146902822905,0.004987157577691879,17.594
4193,0.006880267267126997,0.006880267267126997,0.005018493453074098,17.592
4194,0.004913174347546609,0.004913174347546609,0.0050421860351346276,17.591
4195,0.004964803076479417,0.004964803076479417,0.005042195564443377,17.592
4196,0.0032841759962774584,0.0032841759962774584,0.00503435693668011,17.591
4197,0.0009893587087560704,0.0009893587087560704,0.0049966086119778985,17.589
4198,-0.0009443040778171776,0.0009443040778171776,0.004961461540534536,17.587
4199,-0.006088930208144894,0.006088930208144894,0.004975739375186299,17.581
4200,-0.0061044345434272075,0.0061044345434272075,0.005005319521462023,17.58
4201,-0.004280330221483294,0.004280330221483294,0.005019965284339256,17.581
4202,-0.003517017386997278,0.003517017386997278,0.005026831286839162,17.581
4203,-0.00548271751473655,0.00548271751473655,0.005050808665163675,17.578
4204,-0.0036888682929973014,0.0036888682929973014,0.0050186408199390424,17.579
4205,-0.0030390854268958203,0.0030390854268958203,0.004991603134087593,17.579
4206,-0.0025353412830786694,0.0025353412830786694,0.0049493200854315465,17.579
4207,-0.002176597068571589,0.002176597068571589,0.004880321408225871,17.579
4208,-0.0001855033765253136,0.0001855033765253136,0.004828200274228799,17.581
4209,0.0014737351758324804,0.0014737351758324804,0.004820119850893003,17.583
4210,0.0010851210832299428,0.0010851210832299428,0.004810771749504257,17.583
4211,0.0068724941116535725,0.0068724941116535725,0.004859246704664335,17.59
4212,0.0066241769285770346,0.0066241769285770346,0.00490155015604563,17.591
4213,0.020549061507384694,0.020549061507384694,0.0053122551357474975,17.608
4214,0.017796771644174193,0.017796771644174193,0.005579027860842581,17.608
4215,0.002196297776623654,0.002196297776623654,0.005565464746274528,17.593
4216,-0.004327467606480086,0.004327467606480086,0.005554898833571419,17.586
4217,-0.0037409408784051645,0.0037409408784051645,0.005508296115854964,17.586
4218,-0.004867671073647502,0.004867671073647502,0.005449451965178392,17.584
4219,-0.008405955485673666,0.008405955485673666,0.005480443232483911,17.579
4220,-0.0114442109482453,0.0114442109482453,0.005577009261967225,17.574
4221,-0.008781757793940834,0.008781757793940834,0.005644194185998668,17.575
4222,-0.006461170058011469,0.006461170058011469,0.005680387933734904,17.576
4223,-0.005371644442788133,0.005371644442788133,0.005705020828626663,17.576
4224,-0.004517837664465177,0.004517837664465177,0.0057125499291235315,17.576
4225,-0.0012455770648186352,0.0012455770648186352,0.0056949889298345616,17.579
4226,-0.0002796851470450081,0.0002796851470450081,0.005675609780892657,17.58
4227,0.0013146318688041796,0.0013146318688041796,0.005649995298665289,17.582
4228,0.00436429251215148,0.00436429251215148,0.005621979939000449,17.586
4229,0.0069572358300468845,0.0069572358300468845,0.005664613043143291,17.59
4230,0.009191732250899755,0.009191732250899755,0.0057062631850828115,17.594
4231,0.007626063542628489,0.007626063542628489,0.005719818207237486,17.594
4232,0.004541018811000124,0.004541018811000124,0.005734229735001221,17.592
4233,0.004587142798497296,0.004587142798497296,0.005746674482116917,17.593
4234,0.0012322919325446664,0.0012322919325446664,0.005746751365604184,17.59
4235,0.0019787401237705863,0.0019787401237705863,0.005750156921821087,17.591
4236,0.0010279929001805437,0.0010279929001805437,0.005750766094517297,17.59
4237,-0.0005455685286336524,0.0005455685286336524,0.005739080600044509,17.588
4238,-0.0035797205142703847,0.0035797205142703847,0.005738038312864596,17.584
4239,-0.0017525931262778072,0.0017525931262778072,0.005739611269476988,17.585
4240,-0.002776230116751205,0.002776230116751205,0.005746267798230753,17.583
4241,-0.001940484189284395,0.001940484189284395,0.005749332549301121,17.583
4242,-0.0012896445389963232,0.0012896445389963232,0.005735897626132049,17.583
4243,-0.0008444163760439258,0.0008444163760439258,0.005724728548555779,17.583
4244,0.0002739910028010087,0.0002739910028010087,0.00569534526146815,17.584
4245,-0.002449267958844892,0.002449267958844892,0.00567119529557156,17.581
4246,-0.0005902371543086369,0.0005902371543086369,0.005633393762199745,17.583
4247,0.0035466824615867196,0.0035466824615867196,0.005643650264099018,17.588
4248,0.005298773781252147,0.005298773781252147,0.005653902652625127,17.591
4249,0.005002329051631684,0.005002329051631684,0.005671123676469585,17.592
4250,0.006498053971702445,0.006498053971702445,0.005708229750310183,17.595
4251,0.005208284153652999,0.005208284153652999,0.005724988512773838,17.595
4252,0.005944837678455334,0.005944837678455334,0.005732134640317544,17.597
4253,0.004087826560949314,0.004087826560949314,0.005728708583711196,17.596
4254,0.009704163405714217,0.009704163405714217,0.005773857820288161,17.603
4255,0.005106859201514165,0.005106859201514165,0.005770460899837574,17.599
4256,-0.003166609507467069,0.003166609507467069,0.0057448506000061135,17.59
4257,-0.013807537201979699,0.013807537201979699,0.005867181315493612,17.577
4258,-0.0088956295350002,0.0088956295350002,0.005885573175888642,17.58
4259,-0.008943106534008814,0.008943106534008814,0.005908369381944926,17.578
4260,-0.004584687675424448,0.004584687675424448,0.0059093654470956086,17.581
4261,-0.003495504512421947,0.003495504512421947,0.005916067224448027,17.581
4262,-0.0018030547473113518,0.0018030547473113518,0.005912423469546149,17.582
4263,-0.002273855341509028,0.002273855341509028,0.005916023165990775,17.581
4264,-0.0011319899287534291,0.0011319899287534291,0.0058878854138683795,17.582
4265,-0.0003410690028590748,0.0003410690028590748,0.005860376078715062,17.583
4266,0.0010459843917105644,0.0010459843917105644,0.005849441699369208,17.585
4267,0.0012296379664839276,0.0012296379664839276,0.005838585440530751,17.586
4268,0.0012960488146989218,0.0012960488146989218,0.005812958534612028,17.587
4269,0.002209787766430885,0.002209787766430885,0.005804822867524233,17.589
4270,0.006588895175748491,0.006588895175748491,0.005840402661468247,17.595
4271,0.004356611716798799,0.004356611716798799,0.0058563701085443285,17.594
4272,0.0016758671522744363,0.0016758671522744363,0.005771262100401107,17.592
4273,-0.0004716377181843922,0.0004716377181843922,0.005719379061248574,17.59
4274,-0.0021299402613837405,0.0021299402613837405,0.00570412459681805,17.588
4275,-0.0015949889346417747,0.0015949889346417747,0.005703015167381765,17.588
4276,-0.0018125861881650761,0.0018125861881650761,0.005704398177744432,17.587
4277,-0.004507229760817646,0.004507229760817646,0.005719095990095542,17.583
4278,-0.005905439595814837,0.005905439595814837,0.005737461269411253,17.58
4279,-0.004468895494824771,0.004468895494824771,0.0057490330221578005,17.58
4280,-0.00415245441799839,0.00415245441799839,0.005733864453459516,17.579
4281,-0.002238545853998554,0.002238545853998554,0.0056966181999969214,17.58
4282,-0.001628403653930177,0.001628403653930177,0.00560468445611058,17.58
4283,-0.00043276687806283187,0.00043276687806283187,0.005520249165761951,17.581
4284,-0.0005035415636773864,0.0005035415636773864,0.005482741248195291,17.581
4285,0.0009752945030472415,0.0009752945030472415,0.005483608005357655,17.583
4286,0.00208181008310582,0.00208181008310582,0.005479676042456665,17.585
4287,0.004681984718509896,0.004681984718509896,0.005487024637289668,17.589
4288,0.0015922009908796333,0.0015922009908796333,0.005444738715185381,17.587
4289,-0.00023334477814172458,0.00023334477814172458,0.0054091662660401656,17.586
4290,0.0044316283750132435,0.0044316283750132435,0.005414787873908096,17.592
4291,0.0016082505936855116,0.0016082505936855116,0.005375989295535437,17.59
4292,-0.0006718598437703378,0.0006718598437703378,0.005280666925179453,17.588
4293,0.00021128832450710284,0.00021128832450710284,0.005235695639127046,17.589
4294,-0.0031879348403877662,0.0031879348403877662,0.005222331403630532,17.585
4295,-0.0032954055832687856,0.0032954055832687856,0.00520911216744714,17.584
4296,0.00033397949631125846,0.00033397949631125846,0.005198856304644335,17.587
4297,0.009838241478190832,0.009838241478190832,0.005290201179882121,17.597
4298,-0.0011974631257889912,0.0011974631257889912,0.005290713619266176,17.585
4299,-0.010023244294816916,0.010023244294816916,0.005350285427173751,17.574
4300,-0.0037177663522234023,0.0037177663522234023,0.005328332835679015,17.579
4301,-9.633154369833447e-05,9.633154369833447e-05,0.005311121476429329,17.582
4302,0.00022445751886990446,0.00022445751886990446,0.0052995113959838054,17.582
4303,0.002031622083097914,0.002031622083097914,0.005274987583453021,17.584
4304,0.004254414211260728,0.004254414211260728,0.005279243971968194,17.587
4305,0.005093469462788291,0.005093469462788291,0.005295043987062466,17.589
4306,0.006527588069065491,0.006527588069065491,0.005329099861205793,17.592
4307,0.007663973836196686,0.007663973836196686,0.00537952549323205,17.595
4308,0.004196118492678606,0.004196118492678606,0.005395833996830564,17.593
4309,0.005603400728943709,0.005603400728943709,0.005422848565556567,17.596
4310,0.004301962070624924,0.004301962070624924,0.005438803219815658,17.596
4311,0.0024537883704669576,0.0024537883704669576,0.005400785080374929,17.595
4312,0.00017370819443747118,0.00017370819443747118,0.0053600358235703655,17.593
4313,-0.003344992668463993,0.003344992668463993,0.004961777353039497,17.589
4314,-0.004418760807705741,0.004418760807705741,0.004652659257064069,17.587
4315,-0.008676536549941398,0.008676536549941398,0.0047277715456790674,17.581
4316,-0.006063471371699563,0.006063471371699563,0.004746810600817722,17.582
4317,-0.0045562686901829096,0.0045562686901829096,0.004753931040439026,17.582
4318,0.00031507279324294486,0.00031507279324294486,0.004729049675049719,17.586
4319,0.001873298790120128,0.001873298790120128,0.0046575103259560505,17.587
4320,0.0013318017084324668,0.0013318017084324668,0.004516684597358299,17.586
4321,-0.00022561331898730374,0.00022561331898730374,0.004430548054834338,17.584
4322,0.003476349719532681,0.003476349719532681,0.004396946548996911,17.588
4323,0.005599744121174893,0.005599744121174893,0.00439979143332554,17.591
4324,0.00634769551512957,0.00634769551512957,0.004422328399007492,17.593
4325,0.006808540305218805,0.006808540305218805,0.004472698967883043,17.595
4326,0.008843180152102762,0.008843180152102762,0.004559196439232763,17.599
4327,0.0026112178966384604,0.0026112178966384604,0.0045647753713677075,17.594
4328,0.0024532711335068774,0.0024532711335068774,0.004550482292271223,17.595
4329,0.0024067799323861582,0.0024067799323861582,0.004503419110493098,17.596
4330,-0.00012872800835716462,0.00012872800835716462,0.00440863584071462,17.594
4331,-0.003918289482821901,0.003918289482821901,0.004359820116608408,17.59
4332,-0.007897950722496815,0.007897950722496815,0.00440744814908975,17.585
4333,-0.008507364548706273,0.008507364548706273,0.004465303227332097,17.583
4334,-0.007064382775531177,0.007064382775531177,0.004519159492421629,17.583
4335,-0.009169374122419891,0.009169374122419891,0.0046069971360029474,17.579
4336,-0.00826911966053128,0.00826911966053128,0.0046794912455001975,17.578
4337,-0.003034373092630627,0.003034373092630627,0.00468900160665055,17.582
4338,0.0015126363110259996,0.0015126363110259996,0.004677763649829147,17.586
4339,0.008037413419562583,0.008037413419562583,0.004743074644338816,17.593
4340,0.004757865865319883,0.004757865865319883,0.004758787179637475,17.59
4341,-0.005398405584700089,0.005398405584700089,0.004785376522360865,17.579
4342,-0.003927539928580938,0.003927539928580938,0.004799734610298669,17.58
4343,-0.0001874222655803056,0.0001874222655803056,0.004799028361053303,17.584
4344,0.0020329508537407512,0.0020329508537407512,0.004803254250113671,17.587
4345,0.00030843994716492573,0.00030843994716492573,0.004797104710958775,17.586
4346,0.00047952350045918444,0.00047952350045918444,0.004796981262918851,17.587
4347,0.0006160073124808303,0.0006160073124808303,0.004784248563991169,17.588
4348,-9.389109365563584e-05,9.389109365563584e-05,0.004754824123096185,17.588
4349,-0.0014847315202786288,0.0014847315202786288,0.004730767776909209,17.587
4350,-0.0016551262312231683,0.0016551262312231683,0.004688849659912733,17.587
4351,-0.005138564752477235,0.005138564752477235,0.004688080350438315,17.583
4352,-0.005333183174016516,0.005333183174016516,0.004680717343485947,17.582
4353,-0.00971804700657684,0.00971804700657684,0.004763025925386769,17.576
4354,-0.009861978211120455,0.009861978211120455,0.0047662662781494496,17.574
4355,-0.006330217649602116,0.006330217649602116,0.004780921530426644,17.576
4356,-0.008472432537880915,0.008472432537880915,0.004845075608642105,17.572
4357,-0.0059477749423539,0.0059477749423539,0.004682097509158376,17.573
4358,-0.004692725762264007,0.004692725762264007,0.00462070682772945,17.573
4359,-0.0019615522579419127,0.0019615522579419127,0.004537578309588234,17.575
4360,-0.0015127875709207645,0.0015127875709207645,0.004516891471707179,17.575
4361,0.0004415043961594242,0.0004415043961594242,0.004503562180156471,17.577
4362,0.004600279468549888,0.004600279468549888,0.004523404465466834,17.582
4363,0.006296313340679238,0.006296313340679238,0.0045613506107187556,17.585
4364,0.0032179356599395543,0.0032179356599395543,0.0045712860861065645,17.583
4365,0.004841565028454682,0.004841565028454682,0.004596727174809477,17.586
4366,0.004477377372634676,0.004477377372634676,0.004617296716426691,17.587
4367,0.002435140912158227,0.002435140912158227,0.004622078318771674,17.586
4368,0.0007511175307040995,0.0007511175307040995,0.00462087138265151,17.585
4369,0.000318807950566049,0.000318807950566049,0.004615694649819726,17.585
4370,-0.0016299278549169742,0.0016299278549169742,0.004571331135689774,17.583
4371,-0.001361232204200031,0.001361232204200031,0.004552559414961521,17.583
4372,-3.540285966983155e-05,3.540285966983155e-05,0.004549475184376632,17.584
4373,-0.002228462181713976,0.002228462181713976,0.004554685551038617,17.581
4374,-0.0031395541621679823,0.0031395541621679823,0.00456052212109986,17.579
4375,-0.005633932068246755,0.005633932068246755,0.004592421368463598,17.575
4376,-0.0007484558982495761,0.0007484558982495761,0.004589453257300051,17.579
4377,-5.39745493565837e-05,5.39745493565837e-05,0.00456727042469502,17.579
4378,0.002198115949013257,0.002198115949013257,0.0045342622444394095,17.581
4379,0.001352404094240019,0.001352404094240019,0.0045142124230316445,17.58
4380,0.013664464233338704,0.013664464233338704,0.004698176332488982,17.594
4381,0.020736584922294878,0.020736584922294878,0.005130575944097364,17.604
4382,0.01880213719032039,0.01880213719032039,0.00546182168903247,17.605
4383,0.00458117354479411,0.00458117354479411,0.005480829754841254,17.592
4384,-4.305354459381572e-05,4.305354459381572e-05,0.005480600131059258,17.588
4385,0.00029526656089240086,0.00029526656089240086,0.005479811823987191,17.589
4386,0.001515356686537919,0.001515356686537919,0.005477952295608548,17.591
4387,-0.002626334769347313,0.002626334769347313,0.005464222532723772,17.587
4388,-0.004366379546394032,0.004366379546394032,0.005479327472473633,17.585
4389,-0.005735405192264878,0.005735405192264878,0.005509213535518842,17.583
4390,-0.0076526896020399126,0.0076526896020399126,0.0055444275683656915,17.58
4391,-0.0074088769773751634,0.0074088769773751634,0.005591397583949061,17.579
4392,-0.00794367387802369,0.00794367387802369,0.005647143749905667,17.577
4393,-0.009202859435958888,0.009202859435958888,0.0057216005035757335,17.574
4394,-0.006729020899814038,0.006729020899814038,0.0057522065557274495,17.575
4395,-0.00456531334793042,0.00456531334793042,0.005760877028701391,17.576
4396,-0.00272781146825861,0.00272781146825861,0.005767234889515377,17.577
4397,-0.00033821840061767656,0.00033821840061767656,0.005682801442411714,17.579
4398,0.0007364192202256028,0.0007364192202256028,0.005682016911905455,17.58
4399,0.002406800916776227,0.002406800916776227,0.0055980879621325835,17.582
4400,0.0019499981558635255,0.0019499981558635255,0.0055891319445290615,17.582
4401,0.00759600378076462,0.00759600378076462,0.005640504926871884,17.589
4402,0.004495063496310884,0.004495063496310884,0.005658343218349952,17.587
4403,0.0052427676895192765,0.0052427676895192765,0.0056789470172052365,17.589
4404,0.005005858380189258,0.005005858380189258,0.005685070360394812,17.59
4405,0.002188449817191512,0.002188449817191512,0.00566643484185424,17.588
4406,0.0015713215769299436,0.0015713215769299436,0.00563090403682809,17.588
4407,-0.0014932372139635978,0.0014932372139635978,0.005580502925016657,17.585
4408,-0.000497710903834172,0.000497710903834172,0.0055649273089153125,17.586
4409,-0.00034671548170705667,0.00034671548170705667,0.005536753297057104,17.586
4410,0.001703689002135381,0.001703689002135381,0.0055226437381078386,17.588
4411,-0.004323000358693811,0.004323000358693811,0.005534100324840886,17.581
4412,-0.004224681972905644,0.004224681972905644,0.005550175135773446,17.58
4413,-0.002325337579751405,0.002325337579751405,0.005544964041978546,17.581
4414,-0.0015485582482239859,0.0015485582482239859,0.0055294983572254834,17.581
4415,0.0008413767102486988,0.0008413767102486988,0.005461648868722716,17.583
4416,0.003720267615637428,0.003720267615637428,0.0054406208676754456,17.586
4417,0.0008091268135065603,0.0008091268135065603,0.005422112728818672,17.583
4418,-0.0054384910339548235,0.0054384910339548235,0.005449227980423568,17.576
4419,-0.002245181185056145,0.002245181185056145,0.00545063312694936,17.579
4420,-0.0013525548394038881,0.0013525548394038881,0.005450684229766743,17.58
4421,0.004610646018552231,0.004610646018552231,0.005470103301219708,17.587
4422,0.007994452282482372,0.007994452282482372,0.005517272217795554,17.592
4423,0.01622983972387006,0.01622983972387006,0.005723704950262325,17.603
4424,0.004921395676182839,0.004921395676182839,0.005709646865450174,17.593
4425,0.003015841361312919,0.003015841361312919,0.00567692329597936,17.592
4426,0.0032389268549221396,0.0032389268549221396,0.005616969487910993,17.593
4427,6.251107557821807e-05,6.251107557821807e-05,0.0056109001697973145,17.59
4428,-0.002549485377401896,0.002549485377401896,0.005611329083183628,17.587
4429,-0.00466807232001105,0.00466807232001105,0.005625566387058425,17.584
4430,-0.005492091680028653,0.005492091680028653,0.0056522970707862325,17.582
4431,-0.0043351231096871,0.0043351231096871,0.0056553395278681655,17.582
4432,-0.004142075181737295,0.004142075181737295,0.0056152165396741276,17.581
4433,-0.003087344058642175,0.003087344058642175,0.005558976632901813,17.581
4434,-0.001333859388176404,0.001333859388176404,0.00551551973741645,17.582
4435,-0.0034377440390718768,0.0034377440390718768,0.005449620591990155,17.579
4436,-0.001016692562495818,0.001016692562495818,0.005387477873245293,17.581
4437,0.002703376791500722,0.002703376791500722,0.005385715003119183,17.585
4438,0.0031371293177807247,0.0031371293177807247,0.005392722986793732,17.586
4439,0.0033471765201478977,0.0033471765201478977,0.005342985773338177,17.587
4440,0.006927492152855163,0.006927492152855163,0.005366658697313357,17.592
4441,0.006444063318887347,0.006444063318887347,0.005378183454053811,17.593
4442,0.0033301878268887026,0.0033301878268887026,0.005374151381955646,17.591
4443,0.0023862509196471097,0.0023862509196471097,0.005379413884396198,17.591
4444,0.0007556186605834096,0.0007556186605834096,0.005376102160813126,17.59
4445,0.00033703677528943224,0.00033703677528943224,0.0053761193280440185,17.59
4446,0.00013337844567974037,0.00013337844567974037,0.005375922013905267,17.59
4447,-0.003400155392070819,0.003400155392070819,0.005386311670930605,17.586
4448,-0.005441802505968976,0.005441802505968976,0.00541372306330572,17.583
4449,-0.007076918410592322,0.007076918410592322,0.005457763357933081,17.58
4450,-0.004858608620212199,0.004858608620212199,0.005476846466720439,17.581
4451,-0.0046101265506344824,0.0046101265506344824,0.005472141391722512,17.58
4452,-0.0035003740104836128,0.0035003740104836128,0.005457328024359481,17.58
4453,-0.005227815163796885,0.005227815163796885,0.0053954912012816065,17.577
4454,-0.0033144825262689265,0.0033144825262689265,0.005314940931460152,17.578
4455,-0.0017803818992636056,0.0017803818992636056,0.005280111565778646,17.579
4456,0.0020431070930743644,0.0020431070930743644,0.0052156974492312816,17.583
4457,0.0034491860967845196,0.0034491860967845196,0.00519314052010643,17.585
4458,0.004509632000645173,0.004509632000645173,0.005191518036045483,17.587
4459,0.004413407392978352,0.004413407392978352,0.005206550133643499,17.588
4460,0.004230948021487152,0.004230948021487152,0.005221521640614072,17.589
4461,0.004029176186905391,0.004029176186905391,0.005236857988291648,17.59
4462,-0.0005482439699112766,0.0005482439699112766,0.005216901531766904,17.586
4463,0.0016939054427525602,0.0016939054427525602,0.005181536367893367,17.589
4464,0.010860633343299262,0.010860633343299262,0.005284344954567436,17.6
4465,-0.0012522832878811355,0.0012522832878811355,0.005263608668389571,17.588
4466,-0.009059185762331938,0.009059185762331938,0.005322198380306806,17.579
4467,-0.0077729003950803245,0.0077729003950803245,0.0053731439858092514,17.579
4468,-0.0029386427071953214,0.0029386427071953214,0.005380649656537242,17.583
4469,-0.002984864754976381,0.002984864754976381,0.005388828120969892,17.582
4470,-0.006488501132766683,0.006488501132766683,0.005425302603425241,17.577
4471,-0.0077841369247125015,0.0077841369247125015,0.005479170255086249,17.574
4472,-0.003664454676828668,0.003664454676828668,0.005491409330161293,17.577
