time_s,EMG1_mV,EMG2_mV,AX_g,AY_g,AZ_g,GX_dps,GY_dps,GZ_dps
160.845,-0.002125,-0.002698,0.029,0.98,0.292,-0.24,-0.3,-0.37
160.85,60.275627,-0.009237,0.029,0.98,0.289,-0.12,-0.3,-0.3
160.855,64.574684,33.179447,0.029,0.98,0.289,-0.12,-0.3,-0.3
160.86,-0.011608,-0.005313,0.031,0.98,0.29,-0.18,-0.37,-0.37
160.865,-0.009809,0.000981,0.031,0.98,0.29,-0.18,-0.37,-0.37
160.87,41.455978,-0.005518,0.03,0.982,0.29,-0.24,-0.37,-0.3
160.875,-0.002125,49.239677,0.03,0.982,0.29,-0.24,-0.37,-0.3
160.88,0.000654,-0.016022,0.033,0.982,0.292,-0.18,-0.37,-0.3
160.885,-0.001349,-0.01827,0.033,0.982,0.292,-0.18,-0.37,-0.3
160.89,1.84585,-0.014346,0.032,0.98,0.289,-0.3,-0.3,-0.3
160.895,0.008665,23.252762,0.032,0.98,0.289,-0.3,-0.3,-0.3
160.9,-0.009033,0.0,0.029,0.98,0.289,-0.18,-0.3,-0.24
160.905,-0.010381,-0.007684,0.029,0.98,0.289,-0.18,-0.3,-0.24
160.91,58.479717,-0.004986,0.029,0.979,0.287,-0.18,-0.37,-0.43
160.915,52.703068,1.538331,0.029,0.979,0.287,-0.18,-0.37,-0.43
160.92,-0.011608,-0.004986,0.032,0.98,0.291,-0.24,-0.3,-0.3
160.925,-0.010259,-0.008338,0.032,0.98,0.291,-0.24,-0.3,-0.3
160.93,51.433102,-0.006539,0.031,0.981,0.291,-0.18,-0.37,-0.3
160.935,54.511398,1.740973,0.031,0.981,0.291,-0.18,-0.37,-0.3
160.94,0.000654,11.360142,0.03,0.979,0.289,-0.24,-0.37,-0.3
160.945,-0.001921,-0.008706,0.03,0.979,0.289,-0.24,-0.37,-0.3
160.95,6.496729,-0.011076,0.031,0.981,0.292,-0.18,-0.37,-0.3
160.955,23.829216,0.137901,0.031,0.981,0.292,-0.18,-0.37,-0.3
160.96,0.004986,4.001182,0.028,0.981,0.291,-0.24,-0.3,-0.37
160.965,-0.003597,-0.003597,0.028,0.981,0.291,-0.24,-0.3,-0.37
160.97,-0.004046,-0.002044,0.031,0.982,0.291,-0.24,-0.3,-0.37
160.975,5.238043,0.243841,0.031,0.982,0.291,-0.24,-0.3,-0.37
160.98,-0.012302,2.739716,0.03,0.982,0.289,-0.18,-0.3,-0.37
160.985,-0.009727,-0.015899,0.03,0.982,0.289,-0.18,-0.3,-0.37
160.99,-0.009482,-0.017166,0.031,0.982,0.292,-0.37,-0.37,-0.3
160.995,27.790668,-0.012752,0.031,0.982,0.292,-0.37,-0.37,-0.3
161.0,-0.014673,4.654803,0.03,0.982,0.291,-0.37,-0.37,-0.37
161.005,-0.011158,-0.013202,0.03,0.982,0.291,-0.37,-0.37,-0.37
161.01,59.74527,-0.013774,0.03,0.98,0.292,-0.18,-0.37,-0.37
161.015,65.315193,-0.015695,0.03,0.98,0.292,-0.18,-0.37,-0.37
161.02,0.002289,39.137157,0.03,0.98,0.289,-0.24,-0.3,-0.24
161.025,-0.002248,-0.015572,0.03,0.98,0.289,-0.24,-0.3,-0.24
161.03,59.990665,-0.013529,0.032,0.981,0.288,-0.3,-0.37,-0.24
161.035,66.254761,-0.010831,0.032,0.981,0.288,-0.3,-0.37,-0.24
161.04,0.001226,37.838909,0.032,0.983,0.292,-0.24,-0.3,-0.3
161.045,-0.006417,-0.019414,0.032,0.983,0.292,-0.24,-0.3,-0.3
161.05,3.375598,-0.013978,0.031,0.98,0.291,-0.18,-0.3,-0.37
161.055,57.242287,-0.019414,0.031,0.98,0.291,-0.18,-0.3,-0.37
161.06,-0.011076,33.694103,0.029,0.981,0.291,-0.24,-0.37,-0.37
161.065,-0.01218,-0.003965,0.029,0.981,0.291,-0.24,-0.37,-0.37
161.07,0.243269,-0.005313,0.031,0.981,0.291,-0.24,-0.37,-0.37
161.075,0.796999,-0.009237,0.031,0.981,0.291,-0.24,-0.37,-0.37
161.08,-0.015,51.770454,0.031,0.981,0.291,-0.3,-0.37,-0.3
161.085,-0.011526,-0.009237,0.031,0.981,0.291,-0.3,-0.37,-0.3
161.09,-0.011526,-0.005436,0.032,0.981,0.291,-0.24,-0.3,-0.3
161.095,31.129076,-0.012997,0.032,0.981,0.291,-0.24,-0.3,-0.3
161.1,17.553604,-143.435959,0.03,0.983,0.29,-0.06,-0.3,-0.3
161.105,-0.002248,-0.019986,0.03,0.983,0.29,-0.06,-0.3,-0.3
161.11,-0.007561,-0.016022,0.031,0.982,0.29,-0.24,-0.3,-0.18
161.115,52.933094,-0.019986,0.031,0.982,0.29,-0.24,-0.3,-0.18
161.12,51.269859,46.585873,0.032,0.979,0.29,-0.3,-0.3,-0.24
161.125,-0.001471,-0.01827,0.032,0.979,0.29,-0.3,-0.3,-0.24
161.13,0.004986,-0.016022,0.032,0.982,0.29,-0.18,-0.37,-0.37
161.135,63.785202,-0.014918,0.032,0.982,0.29,-0.18,-0.37,-0.37
161.14,-0.007888,44.595337,0.032,0.982,0.291,-0.12,-0.37,-0.3
161.145,-0.002044,-0.022561,0.032,0.982,0.291,-0.12,-0.37,-0.3
161.15,12.77831,-0.015899,0.031,0.983,0.291,-0.24,-0.37,-0.24
161.155,21.868107,-0.016267,0.031,0.983,0.291,-0.24,-0.37,-0.24
161.16,-0.007112,29.246113,0.031,0.98,0.29,-0.3,-0.37,-0.24
161.165,-0.012425,0.002371,0.031,0.98,0.29,-0.3,-0.37,-0.24
161.17,5.988775,-0.007234,0.029,0.981,0.291,-0.18,-0.37,-0.3
161.175,4.100173,-0.006866,0.029,0.981,0.291,-0.18,-0.37,-0.3
161.18,-0.254754,30.288506,0.029,0.981,0.291,-0.18,-0.37,-0.3
161.185,-0.001022,0.02346,0.03,0.982,0.289,-0.18,-0.3,-0.24
161.19,-0.004619,-0.01782,0.03,0.982,0.289,-0.18,-0.3,-0.24
161.195,61.071888,-0.012997,0.031,0.98,0.289,-0.37,-0.3,-0.24
161.2,3.097507,9.481839,0.031,0.98,0.289,-0.37,-0.3,-0.24
161.205,-0.000695,0.006213,0.03,0.982,0.29,-0.3,-0.37,-0.3
161.21,-0.000245,-0.007888,0.03,0.982,0.29,-0.3,-0.37,-0.3
161.215,64.186806,-0.004619,0.031,0.983,0.29,0.0,-0.3,-0.3
161.22,54.001888,0.309399,0.031,0.983,0.29,0.0,-0.3,-0.3
161.225,-0.004619,1.997076,0.032,0.981,0.289,-0.12,-0.37,-0.3
161.23,0.004823,-0.016471,0.032,0.981,0.289,-0.12,-0.37,-0.3
161.235,52.51432,-0.019741,0.031,0.983,0.291,-0.37,-0.37,-0.24
161.24,66.778725,0.481551,0.031,0.983,0.291,-0.37,-0.37,-0.24
161.245,-0.01218,15.827671,0.033,0.982,0.294,-0.37,-0.49,-0.3
161.25,-0.011281,-0.007234,0.033,0.982,0.294,-0.37,-0.49,-0.3
161.255,-0.008011,-0.001676,0.03,0.981,0.29,-0.06,-0.3,-0.3
161.26,22.796631,0.018883,0.03,0.981,0.29,-0.06,-0.3,-0.3
161.265,-0.008133,7.037626,0.031,0.981,0.292,-0.06,-0.3,-0.3
161.27,-0.011526,-0.002616,0.031,0.981,0.292,-0.06,-0.3,-0.3
161.275,-0.009932,-0.00891,0.032,0.979,0.29,-0.3,-0.37,-0.3
161.28,9.69568,0.060245,0.032,0.979,0.29,-0.3,-0.37,-0.3
161.285,3.049278,4.110146,0.031,0.979,0.288,-0.37,-0.37,-0.24
161.29,-0.006866,-0.020763,0.031,0.979,0.288,-0.37,-0.37,-0.24
161.295,-0.008256,-0.017738,0.03,0.981,0.288,-0.24,-0.3,-0.24
161.3,25.332808,-0.01737,0.03,0.981,0.288,-0.24,-0.3,-0.24
161.305,-0.008583,39.871544,0.031,0.982,0.288,-0.06,-0.37,-0.24
161.31,-0.011608,-0.002371,0.031,0.982,0.288,-0.06,-0.37,-0.24
161.315,61.315075,-0.00609,0.031,0.978,0.291,-0.3,-0.37,-0.24
161.32,59.171921,-0.009809,0.031,0.978,0.291,-0.3,-0.37,-0.24
161.325,-0.014673,51.154194,0.032,0.982,0.289,-0.37,-0.37,-0.37
161.33,-0.009155,-0.00282,0.032,0.982,0.289,-0.37,-0.37,-0.37
161.335,24.266298,-0.004986,0.033,0.981,0.289,-0.12,-0.24,-0.3
161.34,57.675854,-0.00327,0.033,0.981,0.289,-0.12,-0.24,-0.3
161.345,0.000981,50.956291,0.03,0.98,0.289,-0.12,-0.3,-0.3
161.35,-0.00282,-0.018719,0.03,0.98,0.289,-0.12,-0.3,-0.3
161.355,-0.000327,-0.016717,0.031,0.983,0.29,-0.43,-0.37,-0.3
161.36,23.666546,-0.013774,0.031,0.983,0.29,-0.43,-0.37,-0.3
161.365,-0.00846,47.09473,0.03,0.981,0.291,-0.37,-0.37,-0.37
161.37,-0.013079,-0.017289,0.03,0.981,0.291,-0.37,-0.37,-0.37
161.375,-0.006417,-0.013978,0.031,0.981,0.289,-0.12,-0.37,-0.37
161.38,15.188844,-0.016594,0.031,0.981,0.289,-0.12,-0.37,-0.37
161.385,-0.010954,43.628887,0.03,0.982,0.289,-0.18,-0.3,-0.37
161.39,-0.006662,-0.022929,0.03,0.982,0.289,-0.18,-0.3,-0.37
161.395,-0.006989,-0.018719,0.029,0.98,0.291,-0.3,-0.37,-0.37
161.4,31.332047,-0.015368,0.029,0.98,0.291,-0.3,-0.37,-0.37
161.405,-0.005518,-138.976852,0.031,0.982,0.289,-0.24,-0.43,-0.37
161.41,-0.00609,-0.017166,0.031,0.982,0.289,-0.24,-0.43,-0.37
161.415,-0.009482,-0.016921,0.031,0.98,0.289,-0.06,-0.37,-0.3
161.42,43.920712,-0.016717,0.031,0.98,0.289,-0.06,-0.37,-0.3
161.425,0.091389,46.1371,0.03,0.981,0.29,0.06,-0.24,-0.18
161.43,-0.010259,-0.017738,0.03,0.981,0.29,0.06,-0.24,-0.18
161.435,-0.010259,-0.021008,0.029,0.983,0.289,-0.24,-0.37,-0.3
161.44,48.622025,-0.013978,0.029,0.983,0.289,-0.24,-0.37,-0.3
161.445,33.073021,34.400372,0.03,0.98,0.291,-0.24,-0.37,-0.24
161.45,-0.011608,-0.017044,0.03,0.98,0.291,-0.24,-0.37,-0.24
161.455,-0.010627,-0.017044,0.029,0.981,0.29,-0.18,-0.3,-0.3
161.46,55.823956,-0.017616,0.029,0.981,0.29,-0.18,-0.3,-0.3
161.465,64.5634,13.453185,0.029,0.981,0.291,-0.18,-0.37,-0.43
161.47,-0.010259,-0.022234,0.029,0.981,0.291,-0.18,-0.37,-0.43
161.475,-0.009809,-0.013774,0.032,0.981,0.289,-0.12,-0.37,-0.3
161.48,53.829906,-0.017166,0.032,0.981,0.289,-0.12,-0.37,-0.3
161.485,66.863991,17.682512,0.033,0.981,0.29,-0.3,-0.3,-0.37
161.49,-0.000899,-0.020436,0.033,0.981,0.29,-0.3,-0.3,-0.37
161.495,0.002452,-0.017738,0.031,0.981,0.289,-0.3,-0.37,-0.3
161.5,27.422007,-0.015368,0.031,0.981,0.289,-0.3,-0.37,-0.3
161.505,-0.011608,38.165882,0.032,0.983,0.287,-0.06,-0.37,-0.3
161.51,-0.013774,-0.023828,0.032,0.983,0.287,-0.06,-0.37,-0.3
161.515,-0.008338,-0.016471,0.031,0.983,0.289,-0.12,-0.37,-0.37
161.52,2.080618,-0.016798,0.031,0.983,0.289,-0.12,-0.37,-0.37
161.525,0.001471,18.194962,0.031,0.982,0.289,-0.3,-0.37,-0.3
161.53,-0.010054,0.756128,0.031,0.982,0.289,-0.3,-0.37,-0.3
161.535,-0.010054,-0.023379,0.03,0.981,0.288,-0.24,-0.43,-0.3
161.54,53.41293,-0.016921,0.03,0.981,0.288,-0.24,-0.43,-0.3
161.545,27.133043,4.717745,0.031,0.982,0.289,-0.12,-0.37,-0.3
161.55,-0.00282,0.106594,0.031,0.982,0.289,-0.12,-0.37,-0.3
161.555,-0.001471,-0.008256,0.031,0.981,0.291,-0.12,-0.3,-0.3
161.56,66.851891,-0.006417,0.031,0.981,0.291,-0.12,-0.3,-0.3
161.565,47.078705,0.000327,0.033,0.985,0.291,-0.24,-0.37,-0.18
161.57,-0.012997,9.133285,0.033,0.985,0.291,-0.24,-0.37,-0.18
161.575,-0.007357,-0.012629,0.031,0.981,0.289,-0.24,-0.37,-0.24
161.58,41.957722,-0.016798,0.031,0.981,0.289,-0.24,-0.37,-0.24
161.585,60.101429,0.001144,0.031,0.981,0.289,-0.24,-0.3,-0.3
161.59,-0.012425,7.208388,0.031,0.981,0.289,-0.24,-0.3,-0.3
161.595,-0.007561,-0.004864,0.033,0.982,0.289,-0.24,-0.3,-0.24
161.6,0.11534,-0.007561,0.033,0.982,0.289,-0.24,-0.3,-0.24
161.605,62.211067,0.001717,0.03,0.981,0.29,-0.24,-0.3,-0.37
161.61,0.001471,10.51712,0.03,0.981,0.29,-0.24,-0.3,-0.37
161.615,-0.003965,-0.006213,0.032,0.983,0.288,-0.18,-0.24,-0.37
161.62,0.008992,-0.00936,0.032,0.983,0.288,-0.18,-0.24,-0.37
161.625,3.786687,-0.012629,0.032,0.983,0.288,-0.18,-0.24,-0.37
161.63,0.019537,10.876138,0.031,0.979,0.289,-0.18,-0.3,-0.37
161.635,-0.007888,-0.015245,0.031,0.979,0.289,-0.18,-0.3,-0.37
161.64,-0.011076,-0.020191,0.03,0.98,0.287,-0.18,-0.37,-0.3
161.645,17.206764,-0.015695,0.03,0.98,0.287,-0.18,-0.37,-0.3
161.65,4.616792,52.753914,0.03,0.981,0.289,-0.24,-0.3,-0.24
161.655,-0.002371,-0.016144,0.03,0.981,0.289,-0.24,-0.3,-0.24
161.66,0.003842,-0.023828,0.031,0.981,0.289,-0.18,-0.24,-0.3
161.665,56.802425,-0.014918,0.031,0.981,0.289,-0.18,-0.24,-0.3
161.67,-0.010831,42.657772,-0.039,0.698,0.395,9.45,12.87,-6.22
161.675,-0.010259,-0.016471,-0.039,0.698,0.395,9.45,12.87,-6.22
161.68,58.871677,-0.015899,-0.718,1.092,0.384,53.78,83.11,-92.56
161.685,50.863186,-0.016471,-0.718,1.092,0.384,53.78,83.11,-92.56
161.69,-0.001471,42.156113,-0.212,0.918,0.298,-12.56,80.18,-95.73
161.695,-0.000695,-0.00609,-0.212,0.918,0.298,-12.56,80.18,-95.73
161.7,41.496521,-0.009727,0.477,0.988,0.202,55.61,22.07,53.9
161.705,66.181671,-0.010627,0.025,1.318,0.016,84.02,-11.71,-29.02
161.71,-0.001471,11.423248,0.025,1.318,0.016,84.02,-11.71,-29.02
161.715,0.002452,-0.017738,0.102,0.774,0.487,44.82,-48.48,-166.16
161.72,59.111271,-0.017738,0.102,0.774,0.487,44.82,-48.48,-166.16
161.725,37.617138,-0.018719,0.0,1.064,0.249,84.39,23.72,-64.63
161.73,-0.012302,20.78149,0.0,1.064,0.249,84.39,23.72,-64.63
161.735,-0.012425,-0.01827,0.173,0.901,0.225,86.22,4.45,-46.34
161.74,48.881561,-0.016798,0.173,0.901,0.225,86.22,4.45,-46.34
161.745,40.556965,-0.017943,-0.002,1.163,0.223,77.56,-9.63,-26.22
161.75,-0.009727,-161.43364,-0.002,1.163,0.223,77.56,-9.63,-26.22
161.755,-0.010259,-0.014223,0.052,1.04,0.098,83.35,-15.3,-38.48
161.76,64.618652,-0.011158,0.052,1.04,0.098,83.35,-15.3,-38.48
161.765,21.399143,0.736754,-0.078,0.818,0.306,77.2,-6.52,-22.68
161.77,0.005559,13.516454,-0.078,0.818,0.306,77.2,-6.52,-22.68
161.775,-0.001022,-0.015123,-0.1,0.829,0.421,31.77,109.76,46.04
161.78,20.155581,-0.017044,-0.1,0.829,0.421,31.77,109.76,46.04
161.785,64.713806,0.004169,0.119,1.351,-0.903,36.65,88.11,58.54
161.79,-0.009155,9.477997,0.119,1.351,-0.903,36.65,88.11,58.54
161.795,-0.008133,-0.025177,-0.056,0.977,-0.165,-180.3,-99.15,39.57
161.8,34.623856,-0.016022,-0.056,0.977,-0.165,-180.3,-99.15,39.57
161.805,21.453096,10.096387,-0.097,0.831,0.439,-267.87,-114.7,106.16
161.81,0.002616,-0.004741,-0.097,0.831,0.439,-267.87,-114.7,106.16
161.815,0.000817,-0.007234,-0.059,0.978,0.33,-199.88,-78.6,171.1
161.82,65.10495,-0.009155,-0.059,0.978,0.33,-199.88,-78.6,171.1
161.825,44.132996,42.959244,0.004,0.961,0.276,-214.88,-70.43,164.51
161.83,-0.013324,-0.001144,0.004,0.961,0.276,-214.88,-70.43,164.51
161.835,-0.013774,-0.006662,-0.033,0.921,0.582,-247.68,-66.71,130.85
161.84,39.071518,-0.006539,0.013,0.915,0.657,-176.83,-21.59,103.41
161.845,-0.00327,38.557762,0.013,0.915,0.657,-176.83,-21.59,103.41
161.85,0.00376,-0.018515,0.058,0.915,0.642,-86.83,17.62,60.43
161.855,27.588764,-0.02346,0.058,0.915,0.642,-86.83,17.62,60.43
161.86,55.678043,-0.017943,0.117,0.949,0.909,8.35,54.09,-22.13
161.865,0.002371,40.458462,0.117,0.949,0.909,8.35,54.09,-22.13
161.87,-0.001594,-0.010177,0.082,0.769,0.312,151.71,124.76,-80.18
161.875,52.637836,-0.003065,0.082,0.769,0.312,151.71,124.76,-80.18
161.88,66.073776,-0.005436,0.247,1.163,0.058,197.8,101.89,-92.8
161.885,-0.010177,8.079039,0.247,1.163,0.058,197.8,101.89,-92.8
161.89,-0.006662,-0.005313,0.213,0.851,0.291,130.12,2.62,-109.88
161.895,-0.006785,-0.007234,0.213,0.851,0.291,130.12,2.62,-109.88
161.9,34.147533,0.01455,0.053,0.974,0.294,191.95,-54.94,-70.24
161.905,-0.009932,26.790457,0.053,0.974,0.294,191.95,-54.94,-70.24
161.91,-0.013202,-0.005313,0.179,1.053,0.127,202.38,-92.44,-75.18
161.915,0.320189,-0.005886,0.179,1.053,0.127,202.38,-92.44,-75.18
161.92,3.889357,0.876617,-0.099,0.21,0.812,50.12,-102.2,-41.71
161.925,0.002616,0.885609,-0.099,0.21,0.812,50.12,-102.2,-41.71
161.93,0.000572,-0.016022,-0.043,0.34,1.131,-167.07,75.12,128.78
161.935,15.734073,-0.018638,-0.043,0.34,1.131,-167.07,75.12,128.78
161.94,55.151859,0.674221,0.119,0.991,0.315,-346.52,180.67,230.91
161.945,-0.000899,-0.003965,0.119,0.991,0.315,-346.52,180.67,230.91
161.95,-0.002044,-0.007888,0.21,1.21,-0.062,-302.87,137.5,226.1
161.955,57.264194,-0.009605,0.21,1.21,-0.062,-302.87,137.5,226.1
161.96,57.987377,20.088633,-0.06,1.291,-0.316,-106.83,49.63,145.06
161.965,-0.006866,-0.020436,0.103,1.065,-0.337,83.11,-0.49,4.45
161.97,0.002044,-0.018515,0.103,1.065,-0.337,83.11,-0.49,4.45
161.975,45.532364,-0.019414,0.125,0.881,0.522,-205.37,-60.24,-9.82
161.98,31.92877,45.146046,0.125,0.881,0.522,-205.37,-60.24,-9.82
161.985,-0.016594,-0.016471,0.128,0.824,0.98,-151.1,-36.34,13.54
161.99,-0.015245,-0.016022,0.128,0.824,0.98,-151.1,-36.34,13.54
161.995,62.123272,-0.019741,0.171,0.909,0.483,83.84,21.1,14.51
162.0,-0.007112,64.902466,0.171,0.909,0.483,83.84,21.1,14.51
162.005,-0.009932,-0.020313,0.061,0.934,0.298,108.35,16.65,-24.51
162.01,21.355085,-0.016471,0.061,0.934,0.298,108.35,16.65,-24.51
162.015,38.519917,-0.015695,0.043,0.942,0.174,27.74,7.5,-7.8
162.02,-0.006785,49.23077,0.043,0.942,0.174,27.74,7.5,-7.8
162.025,-0.012875,-0.01737,0.107,0.93,0.378,-71.83,-15.85,8.66
162.03,13.109126,-0.016349,0.107,0.93,0.378,-71.83,-15.85,8.66
162.035,29.14843,-0.013529,0.136,0.891,0.655,-63.11,-17.38,3.29
162.04,-0.009932,25.135397,0.136,0.891,0.655,-63.11,-17.38,3.29
162.045,-0.012425,-0.004741,0.109,0.904,0.509,39.09,10.55,-2.07
162.05,0.21425,-0.005518,0.109,0.904,0.509,39.09,10.55,-2.07
162.055,7.152639,-0.008583,0.1,0.959,0.256,52.87,14.88,-0.49
162.06,-0.009605,47.900555,0.1,0.959,0.256,52.87,14.88,-0.49
162.065,-0.012997,-0.007888,0.097,0.937,0.36,-16.77,-5.98,-2.8
162.07,-0.013202,-0.003147,0.097,0.937,0.36,-16.77,-5.98,-2.8
162.075,10.605077,-0.00846,0.105,0.907,0.481,-34.45,-8.84,0.85
162.08,0.044387,51.784435,0.105,0.907,0.481,-34.45,-8.84,0.85
162.085,0.002861,-0.005313,0.109,0.906,0.473,-4.57,-1.34,1.28
162.09,0.000245,-0.004619,0.109,0.906,0.473,-4.57,-1.34,1.28
162.095,40.588436,-0.007888,0.1,0.92,0.425,19.09,3.29,-0.12
162.1,11.949677,28.232574,0.1,0.92,0.425,19.09,3.29,-0.12
162.105,0.001553,-0.019864,0.107,0.939,0.353,14.21,3.72,0.61
162.11,0.000327,-0.015695,0.107,0.939,0.353,14.21,3.72,0.61
162.115,33.516232,-0.015572,0.103,0.926,0.4,-16.1,-3.66,-1.04
162.12,61.415375,5.148125,0.103,0.926,0.4,-16.1,-3.66,-1.04
162.125,0.002943,0.05297,0.106,0.908,0.48,-16.34,-4.39,-0.67
162.13,0.000572,-0.005967,0.106,0.908,0.48,-16.34,-4.39,-0.67
162.135,8.835248,-0.005191,0.105,0.919,0.439,9.63,2.13,-0.06
162.14,21.640369,10.904013,0.105,0.919,0.439,9.63,2.13,-0.06
162.145,-0.01218,2.073424,0.105,0.919,0.439,9.63,2.13,-0.06
162.15,-0.010831,-0.017943,0.103,0.93,0.38,13.11,2.68,0.12
162.155,-0.011975,-0.014673,0.103,0.93,0.38,13.11,2.68,0.12
162.16,7.360431,-0.013978,0.105,0.928,0.402,-5.12,-1.28,-0.49
162.165,1.199831,17.321125,0.105,0.928,0.402,-5.12,-1.28,-0.49
162.17,-0.012752,-0.008787,0.102,0.915,0.444,-10.85,-2.62,-0.91
162.175,-0.004496,-0.006866,0.102,0.915,0.444,-10.85,-2.62,-0.91
162.18,16.834505,0.013978,0.104,0.917,0.444,-0.06,-0.67,0.37
162.185,-0.008133,21.911921,0.104,0.917,0.444,-0.06,-0.67,0.37
162.19,-0.009932,-0.016267,0.108,0.925,0.414,7.13,1.1,0.37
162.195,10.745675,-0.016144,0.108,0.925,0.414,7.13,1.1,0.37
162.2,43.409241,-0.016594,0.103,0.927,0.401,1.77,0.67,-0.79
162.205,-0.008583,47.824291,0.103,0.927,0.401,1.77,0.67,-0.79
162.21,-0.009605,-0.001349,0.101,0.919,0.422,-5.79,-1.34,-0.79
162.215,-0.012548,-0.009482,0.101,0.919,0.422,-5.79,-1.34,-0.79
162.22,22.282629,-0.008011,0.107,0.917,0.434,-3.11,-1.34,0.3
162.225,0.001226,45.758797,0.107,0.917,0.434,-3.11,-1.34,0.3
162.23,0.001226,-0.02109,0.108,0.923,0.42,2.68,0.12,0.18
162.235,-0.001798,-0.018638,0.108,0.923,0.42,2.68,0.12,0.18
162.24,11.511613,-0.014918,0.198,0.947,0.507,3.11,-0.49,-2.87
162.245,0.491197,36.471176,0.198,0.947,0.507,3.11,-0.49,-2.87
162.25,-0.010259,-0.014796,0.191,0.833,0.882,101.28,3.6,-42.2
162.255,-0.013202,-0.020885,0.191,0.833,0.882,101.28,3.6,-42.2
162.26,57.180569,-0.016717,-0.061,0.856,0.219,256.4,40.43,-27.87
162.265,19.484221,10.741507,-0.061,0.856,0.219,256.4,40.43,-27.87
162.27,-0.013774,-0.012997,0.076,0.891,0.19,89.27,25.61,-1.77
162.275,-0.010259,-0.015817,0.076,0.891,0.19,89.27,25.61,-1.77
162.28,60.971588,-0.015245,-0.015,0.996,0.3,-55.98,5.24,5.91
162.285,35.691341,17.344912,-0.015,0.996,0.3,-55.98,5.24,5.91
162.29,-0.000245,-0.019169,0.025,1.018,-0.018,66.22,9.45,10.12
162.295,-0.001144,-0.016144,0.025,1.018,-0.018,66.22,9.45,10.12
162.3,57.642666,-0.016921,0.102,0.961,0.131,-109.94,-33.41,13.23
162.305,51.280487,15.050616,0.102,0.961,0.131,-109.94,-33.41,13.23
162.31,0.002371,-0.021662,0.116,0.897,0.393,-209.63,-33.35,27.8
162.315,-0.000572,-0.02064,0.116,0.897,0.393,-209.63,-33.35,27.8
162.32,64.602058,-0.015,0.153,0.88,0.565,-196.65,-25.06,45.37
162.325,35.689056,50.365612,0.153,0.88,0.565,-196.65,-25.06,45.37
162.33,-0.005886,-0.003842,0.12,0.866,0.687,-95.85,-29.94,55.61
162.335,-0.004864,-0.010954,0.12,0.866,0.687,-95.85,-29.94,55.61
162.34,32.518551,-0.007807,0.179,0.948,0.463,-1.22,-4.63,41.4
162.345,-0.001022,25.797682,0.179,0.948,0.463,-1.22,-4.63,41.4
162.35,-0.001676,-0.018515,0.184,0.938,0.427,0.18,0.79,0.37
162.355,1.690946,-0.020313,0.184,0.938,0.427,0.18,0.79,0.37
162.36,6.966101,-0.019087,0.147,0.895,0.553,6.04,-3.84,-27.62
162.365,-0.010708,45.280842,0.147,0.895,0.553,6.04,-3.84,-27.62
162.37,-0.011853,-0.009727,0.116,0.892,0.528,60.55,9.39,-37.87
162.375,-0.010627,-0.007561,0.116,0.892,0.528,60.55,9.39,-37.87
162.38,57.734627,-0.00609,0.054,0.914,0.309,89.33,21.77,-22.2
162.385,0.169046,48.147667,0.054,0.914,0.309,89.33,21.77,-22.2
162.39,-0.007807,-0.00609,0.096,0.961,0.19,20.06,5.85,4.63
162.395,-0.013324,-0.010054,0.096,0.961,0.19,20.06,5.85,4.63
162.4,66.19754,-0.006866,0.132,0.924,0.439,-64.76,-18.96,3.9
162.405,24.739676,10.769136,0.132,0.924,0.439,-64.76,-18.96,3.9
162.41,-0.007807,-0.002698,0.119,0.885,0.588,-44.21,-10.98,-0.3
162.415,-0.009155,-0.002371,0.119,0.885,0.588,-44.21,-10.98,-0.3
162.42,46.245903,-0.008338,0.116,0.906,0.493,22.2,5.98,-0.37
162.425,20.211248,32.770729,0.116,0.906,0.493,22.2,5.98,-0.37
162.43,8.2e-05,-0.021907,0.112,0.931,0.358,42.68,10.0,-0.43
162.435,0.001471,-0.017166,0.112,0.931,0.358,42.68,10.0,-0.43
162.44,21.046993,-0.015368,0.109,0.94,0.306,4.45,2.32,-0.18
162.445,53.390369,3.440421,0.109,0.94,0.306,4.45,2.32,-0.18
162.45,-0.010259,0.106103,0.112,0.912,0.446,-38.48,-10.49,-0.37
162.455,-0.012548,-0.008256,0.112,0.912,0.446,-38.48,-10.49,-0.37
162.46,11.867687,-0.011076,0.125,0.897,0.538,-19.15,-6.04,0.55
162.465,35.151264,3.96644,0.125,0.897,0.538,-19.15,-6.04,0.55
162.47,0.001144,0.097111,0.115,0.916,0.44,23.54,6.46,-0.49
162.475,-0.000245,-0.019741,0.115,0.916,0.44,23.54,6.46,-0.49
162.48,-0.004292,-0.017616,0.106,0.93,0.351,20.79,5.49,-0.67
162.485,24.682455,10.419355,0.106,0.93,0.351,20.79,5.49,-0.67
162.49,-0.009155,0.375203,0.115,0.925,0.392,-11.1,-3.54,0.3
162.495,-0.010504,-0.019986,0.115,0.925,0.392,-11.1,-3.54,0.3
162.5,57.184166,-0.019741,0.12,0.908,0.466,-20.06,-5.43,-0.24
162.505,67.430061,-0.018515,0.12,0.908,0.466,-20.06,-5.43,-0.24
162.51,-0.010954,8.36604,0.117,0.909,0.472,-1.04,-0.3,-0.43
162.515,-0.009237,-0.004496,0.117,0.909,0.472,-1.04,-0.3,-0.43
162.52,0.553976,-0.010054,0.115,0.921,0.415,14.45,3.6,-0.18
162.525,9.086855,-0.006662,0.115,0.921,0.415,14.45,3.6,-0.18
162.53,-0.01827,31.553324,0.114,0.927,0.384,6.34,1.52,-0.3
162.535,-0.008706,-0.000245,0.114,0.927,0.384,6.34,1.52,-0.3
162.54,-0.010054,-0.008256,0.115,0.917,0.42,-10.37,-3.05,-0.37
162.545,64.286049,-0.011608,0.115,0.917,0.42,-10.37,-3.05,-0.37
162.55,-0.002698,25.713894,0.117,0.911,0.46,-9.45,-2.87,-0.18
162.555,-0.002044,-0.016144,0.117,0.911,0.46,-9.45,-2.87,-0.18
162.56,-0.004496,-0.015368,0.25,1.065,0.443,4.88,-0.67,-1.1
162.565,62.894852,-0.01737,0.25,1.065,0.443,4.88,-0.67,-1.1
162.57,1.920237,17.748888,0.194,1.206,0.538,10.91,-11.04,-21.28
162.575,-0.001144,-0.017493,0.194,1.206,0.538,10.91,-11.04,-21.28
162.58,-0.008787,-0.015245,0.116,0.862,0.479,73.6,-2.8,-56.46
162.585,239.544144,-0.014223,0.116,0.862,0.479,73.6,-2.8,-56.46
162.59,-0.001594,17.882212,0.104,0.773,0.457,81.71,2.2,-66.34
162.595,0.002371,-0.008706,0.104,0.773,0.457,81.71,2.2,-66.34
162.6,14.751189,-0.010831,0.052,0.824,0.486,72.99,12.38,-64.94
162.605,29.19486,-0.007357,0.052,0.824,0.486,72.99,12.38,-64.94
162.61,-0.018188,36.273521,-0.003,0.904,0.369,110.67,26.89,-53.84
162.615,-0.006213,-0.003515,-0.003,0.904,0.369,110.67,26.89,-53.84
162.62,59.046692,-0.005436,0.056,1.059,0.022,64.45,46.16,-7.99
162.625,64.811821,-0.005436,0.056,1.059,0.022,64.45,46.16,-7.99
162.63,-0.010504,28.70775,0.087,0.983,0.239,-78.41,1.83,-1.22
162.635,-0.011975,-0.003147,0.087,0.983,0.239,-78.41,1.83,-1.22
162.64,61.307636,-0.00282,0.126,0.801,0.48,-77.87,-31.83,16.04
162.645,60.353039,-0.008787,0.126,0.801,0.48,-77.87,-31.83,16.04
162.65,0.00049,47.015846,0.117,0.871,0.28,-7.26,-29.09,43.48
162.655,0.00188,-0.019986,0.117,0.871,0.28,-7.26,-29.09,43.48
162.66,19.047955,-0.022112,0.145,0.914,0.214,-36.16,-51.28,48.23
162.665,13.727352,-0.018065,0.145,0.914,0.214,-36.16,-51.28,48.23
162.67,-0.01173,10.056823,0.138,0.96,0.318,-59.63,-70.73,49.7
162.675,-0.007684,-0.018392,0.138,0.96,0.318,-59.63,-70.73,49.7
162.68,2.033288,-0.016144,0.102,0.873,0.375,-66.59,-46.22,40.55
162.685,64.08226,2.499471,0.102,0.873,0.375,-66.59,-46.22,40.55
162.69,-0.013774,16.385242,-0.201,0.706,0.496,-105.67,-15.67,31.1
162.695,-0.005967,-0.017044,-0.201,0.706,0.496,-105.67,-15.67,31.1
162.7,-0.007888,-0.01737,-0.124,0.743,0.511,-109.7,18.6,47.5
162.705,2.574349,-0.01827,-0.124,0.743,0.511,-109.7,18.6,47.5
162.71,-0.01218,2.21435,0.247,0.872,0.437,-88.6,45.55,47.5
162.715,-0.010831,-0.020313,0.247,0.872,0.437,-88.6,45.55,47.5
162.72,-0.006213,-0.019087,0.585,1.068,0.321,-116.59,72.8,29.82
162.725,27.99601,0.166021,0.585,1.068,0.321,-116.59,72.8,29.82
162.73,0.00139,10.483769,0.699,1.039,0.723,-229.02,-23.72,11.77
162.735,-0.004169,-0.022929,0.699,1.039,0.723,-229.02,-23.72,11.77
162.74,1.659802,-0.019087,0.023,0.857,0.787,-59.09,-41.95,-3.54
162.745,6.991605,0.575965,0.023,0.857,0.787,-59.09,-41.95,-3.54
162.75,-0.013651,1.592364,-0.066,0.782,0.395,44.94,32.01,0.67
162.755,-0.011526,-0.021785,-0.066,0.782,0.395,44.94,32.01,0.67
162.76,0.466183,-0.012629,0.248,0.92,0.568,-111.22,33.78,-23.6
162.765,0.214658,5.186626,0.248,0.92,0.568,-111.22,33.78,-23.6
162.77,-0.011975,1.326043,0.254,0.805,0.739,-59.39,41.77,-26.95
162.775,-0.011608,-0.005763,0.254,0.805,0.739,-59.39,41.77,-26.95
162.78,12.261119,-0.003065,0.019,0.833,0.308,4.76,32.01,15.37
162.785,5.510412,0.51433,0.019,0.833,0.308,4.76,32.01,15.37
162.79,-0.013324,1.632581,-0.067,0.736,0.466,-82.62,-32.5,24.02
162.795,-0.007684,-0.006866,-0.067,0.736,0.466,-82.62,-32.5,24.02
162.8,23.887581,-0.006213,0.005,0.938,0.659,-84.15,-57.01,50.61
162.805,9.437534,0.409862,0.005,0.938,0.659,-84.15,-57.01,50.61
162.81,-0.001471,-0.015695,-0.018,0.824,0.706,-61.65,-50.37,43.6
162.815,0.002861,-0.019414,-0.018,0.824,0.706,-61.65,-50.37,43.6
162.82,54.536167,-0.014428,0.038,0.826,0.594,27.68,-15.18,22.62
162.825,1.238006,14.730591,0.038,0.826,0.594,27.68,-15.18,22.62
162.83,-0.013978,-0.023583,0.315,0.849,0.482,32.5,19.7,-7.74
162.835,-0.010381,-0.017943,0.315,0.849,0.482,32.5,19.7,-7.74
162.84,60.263039,-0.017493,0.417,0.845,0.567,-0.67,32.5,-7.56
162.845,7.262339,19.042969,0.417,0.845,0.567,-0.67,32.5,-7.56
162.85,0.001798,0.000572,0.37,0.85,0.556,6.65,34.09,9.45
162.855,-0.002248,-0.004046,0.37,0.85,0.556,6.65,34.09,9.45
162.86,22.705242,-0.002943,0.31,0.775,0.543,-3.23,21.71,20.79
162.865,61.728371,0.497409,0.31,0.775,0.543,-3.23,21.71,20.79
162.87,-0.007112,10.834285,0.178,0.787,0.472,-15.85,8.29,38.54
162.875,-0.007807,-0.018964,0.178,0.787,0.472,-15.85,8.29,38.54
162.88,-0.012629,-0.015695,0.066,1.02,0.347,6.77,-7.5,22.62
162.885,4.460907,-0.009727,0.066,1.02,0.347,6.77,-7.5,22.62
162.89,-0.012997,8.281926,-0.009,0.584,0.114,47.38,-48.54,2.74
162.895,-0.010627,-0.01782,-0.009,0.584,0.114,47.38,-48.54,2.74
162.9,-0.010177,-0.018638,-0.141,0.69,0.732,-63.17,-60.3,-1.16
162.905,1.40983,0.179999,-0.141,0.69,0.732,-63.17,-60.3,-1.16
162.91,0.139209,20.865686,0.282,0.827,0.877,-49.63,10.85,10.79
162.915,-0.016717,-0.00045,0.282,0.827,0.877,-49.63,10.85,10.79
162.92,-0.007888,-0.004986,0.47,0.687,-0.014,153.23,-39.09,47.93
162.925,3.203528,0.058365,0.47,0.687,-0.014,153.23,-39.09,47.93
162.93,-0.01455,24.475071,-0.111,0.413,0.154,-65.12,-138.9,74.88
162.935,-0.011975,-0.006662,-0.111,0.413,0.154,-65.12,-138.9,74.88
162.94,64.629372,-0.00564,0.069,0.665,0.642,-363.66,-48.9,153.17
162.945,10.416985,1.126753,0.069,0.665,0.642,-363.66,-48.9,153.17
162.95,-0.012752,1.07411,0.424,0.769,0.797,-355.43,-24.33,191.04
162.955,-0.009482,-0.015817,0.237,0.871,0.761,-246.04,-38.84,167.01
162.96,39.471493,-0.017738,0.237,0.871,0.761,-246.04,-38.84,167.01
162.965,1.140731,26.174273,0.285,0.796,0.567,-165.0,11.59,147.07
162.97,-0.010177,-0.016717,0.285,0.796,0.567,-165.0,11.59,147.07
162.975,-0.008787,-0.016349,0.337,0.761,0.566,-224.27,13.72,141.16
162.98,41.094345,-0.018964,0.337,0.761,0.566,-224.27,13.72,141.16
162.985,-91.837402,34.834835,0.354,0.615,0.832,-272.93,-8.96,125.3
162.99,-0.009237,-0.017044,0.354,0.615,0.832,-272.93,-8.96,125.3
162.995,-0.004864,-0.018842,0.35,0.581,0.859,-187.62,5.91,122.32
163.0,7.115283,-0.016798,0.35,0.581,0.859,-187.62,5.91,122.32
163.005,0.971849,55.979923,0.365,0.711,0.566,-147.56,14.7,130.55
163.01,-0.009237,-0.02064,0.365,0.711,0.566,-147.56,14.7,130.55
163.015,-0.009237,-0.015245,0.378,0.973,0.297,-235.0,4.27,132.44
163.02,46.770451,-0.013978,0.378,0.973,0.297,-235.0,4.27,132.44
163.025,0.755719,18.660574,0.375,0.378,0.985,-235.73,0.3,100.24
163.03,-0.002698,-0.003392,0.375,0.378,0.985,-235.73,0.3,100.24
163.035,-0.000123,-0.010627,0.297,0.113,1.022,71.1,37.01,71.83
163.04,67.872292,-0.003842,0.297,0.113,1.022,71.1,37.01,71.83
163.045,-0.001471,24.896132,0.45,0.485,0.581,-111.16,23.17,72.5
163.05,-0.002044,-0.003965,0.45,0.485,0.581,-111.16,23.17,72.5
163.055,7.746179,-0.001798,0.247,0.417,0.719,142.68,6.52,48.6
163.06,66.195076,-0.008787,0.247,0.417,0.719,142.68,6.52,48.6
163.065,-0.008256,22.350639,0.418,0.146,1.085,53.48,64.94,44.88
163.07,-0.00891,-0.017616,0.418,0.146,1.085,53.48,64.94,44.88
163.075,1.584189,-0.016471,0.293,0.448,0.571,-93.41,51.1,67.68
163.08,16.43437,-0.012302,0.293,0.448,0.571,-93.41,51.1,67.68
163.085,-0.009932,30.065592,0.371,0.545,0.971,-16.16,36.83,63.29
163.09,-0.009932,-0.016267,0.371,0.545,0.971,-16.16,36.83,63.29
163.095,-0.007684,-0.020109,0.253,0.563,0.756,-137.87,32.5,55.06
163.1,26.868113,-0.019986,0.253,0.563,0.756,-137.87,32.5,55.06
163.105,-0.000327,34.004078,0.318,0.438,0.742,-129.39,32.32,37.07
163.11,0.004823,-0.019291,0.318,0.438,0.742,-129.39,32.32,37.07
163.115,1.656859,-0.016921,0.376,0.43,0.932,-166.04,7.62,30.37
163.12,12.197358,-0.018065,0.376,0.43,0.932,-166.04,7.62,30.37
163.125,-0.016144,27.555412,0.392,0.182,0.69,-228.29,-14.39,30.91
163.13,-0.00891,-0.003392,0.392,0.182,0.69,-228.29,-14.39,30.91
163.135,0.004659,-0.008256,0.355,0.29,0.784,76.83,-16.52,60.73
163.14,2.590697,-0.002044,0.355,0.29,0.784,76.83,-16.52,60.73
163.145,0.003188,19.158556,0.456,0.532,1.502,61.89,12.32,57.5
163.15,0.001226,-0.015,0.456,0.532,1.502,61.89,12.32,57.5
163.155,-0.001594,-0.017943,0.427,0.852,1.118,-240.06,62.32,21.16
163.16,38.481579,-0.013324,0.427,0.852,1.118,-240.06,62.32,21.16
163.165,-0.00846,5.840002,0.338,0.535,0.376,-280.61,72.26,-29.09
163.17,-0.010627,-0.021662,0.169,-0.246,0.348,-10.43,37.87,-40.49
163.175,61.581806,-0.016798,0.169,-0.246,0.348,-10.43,37.87,-40.49
163.18,12.140383,0.043815,0.251,-0.408,1.073,113.78,70.12,25.91
163.185,-0.012997,22.043692,0.251,-0.408,1.073,113.78,70.12,25.91
163.19,-0.008011,-0.022561,0.414,0.552,1.046,-33.9,145.12,69.27
163.195,59.74511,-0.021539,0.414,0.552,1.046,-33.9,145.12,69.27
163.2,64.441765,-0.019291,0.616,0.259,1.005,-85.79,85.3,30.61
163.205,-0.000572,0.435938,0.616,0.259,1.005,-85.79,85.3,30.61
163.21,0.002044,-0.008256,0.715,0.407,0.822,25.98,12.07,-3.6
163.215,16.80434,-0.003842,0.715,0.407,0.822,25.98,12.07,-3.6
163.22,48.58025,-0.003147,0.33,0.221,0.659,187.87,-41.46,-24.94
163.225,-0.010954,0.237056,0.33,0.221,0.659,187.87,-41.46,-24.94
163.23,-0.005967,-0.022112,0.478,0.774,0.85,259.39,-73.29,-18.35
163.235,2.604267,-0.015245,0.478,0.774,0.85,259.39,-73.29,-18.35
163.24,62.668831,2.91669,0.648,1.066,1.292,199.45,-115.73,-19.02
163.245,-0.013202,0.204522,0.648,1.066,1.292,199.45,-115.73,-19.02
163.25,-0.011076,-0.010708,0.781,1.132,0.616,-356.04,-225.67,-35.18
163.255,28.459496,-0.008256,0.781,1.132,0.616,-356.04,-225.67,-35.18
163.26,37.573895,32.400269,-0.165,0.045,-1.412,-1175.85,-514.15,-68.48
163.265,0.003188,-0.003515,-0.165,0.045,-1.412,-1175.85,-514.15,-68.48
163.27,-0.001921,-0.00564,0.423,-0.785,0.595,96.1,-427.38,-139.09
163.275,22.901426,-0.007561,0.423,-0.785,0.595,96.1,-427.38,-139.09
163.28,0.895173,28.414047,1.249,-0.142,0.003,304.27,-350.49,-56.22
163.285,-0.000572,-0.016349,0.859,0.071,-0.001,19.88,-536.71,-2.01
163.29,-0.000899,-0.01455,0.859,0.071,-0.001,19.88,-536.71,-2.01
163.295,12.451418,-0.016594,0.631,-0.038,0.894,-117.01,-602.87,7.2
163.3,-0.009727,2.323151,0.631,-0.038,0.894,-117.01,-602.87,7.2
163.305,-0.008706,-0.001349,0.524,0.372,1.308,-175.55,-518.66,-7.68
163.31,10.000257,-0.004414,0.524,0.372,1.308,-175.55,-518.66,-7.68
163.315,10.973659,0.239427,1.017,0.181,1.128,-100.73,-362.26,-42.07
163.32,-0.009605,-0.004986,1.017,0.181,1.128,-100.73,-362.26,-42.07
163.325,-0.009932,-0.008256,1.582,-0.438,1.019,257.74,-277.26,-46.04
163.33,2.314486,-0.008706,1.582,-0.438,1.019,257.74,-277.26,-46.04
163.335,0.293786,17.652594,1.543,-1.499,1.057,285.79,-256.4,48.9
163.34,0.004414,-0.019986,1.543,-1.499,1.057,285.79,-256.4,48.9
163.345,0.000327,-0.013447,1.501,-1.555,1.529,126.34,-216.22,291.52
163.35,9.608377,-0.017044,1.501,-1.555,1.529,126.34,-216.22,291.52
163.355,0.00049,45.275284,1.766,-0.853,1.661,-374.09,-122.62,532.2
163.36,-0.000123,-0.004986,1.876,0.097,1.536,-478.41,-23.54,640.3
163.365,0.000572,-0.005191,1.876,0.097,1.536,-478.41,-23.54,640.3
163.37,11.691366,-0.002248,1.706,0.878,1.381,-375.06,54.02,616.65
163.375,-0.014223,30.152321,1.706,0.878,1.381,-375.06,54.02,616.65
163.38,-0.009727,-0.021662,1.183,1.407,1.241,-269.57,131.59,502.87
163.385,-0.004046,-0.014918,1.183,1.407,1.241,-269.57,131.59,502.87
163.39,47.192493,0.135776,0.799,1.572,0.899,-116.22,232.87,316.28
163.395,0.002371,3.935296,0.799,1.572,0.899,-116.22,232.87,316.28
163.4,8.2e-05,-0.008011,0.596,1.23,0.332,41.83,312.93,95.0
163.405,5.159978,-0.00282,0.596,1.23,0.332,41.83,312.93,95.0
163.41,26.370049,0.136839,0.523,0.52,-0.279,172.99,321.16,-81.04
163.415,-0.011158,1.3043,0.523,0.52,-0.279,172.99,321.16,-81.04
163.42,-0.007888,-0.003515,0.504,-0.364,-0.659,276.52,231.04,-165.18
163.425,12.465968,-0.003147,0.504,-0.364,-0.659,276.52,231.04,-165.18
163.43,14.386777,1.614434,0.539,-0.921,-0.422,301.89,62.99,-142.07
163.435,-0.013079,-0.017493,0.539,-0.921,-0.422,301.89,62.99,-142.07
163.44,-0.009482,-0.018065,0.598,-1.031,0.281,173.05,-81.34,-53.29
163.445,55.272182,-0.013202,0.598,-1.031,0.281,173.05,-81.34,-53.29
163.45,-0.012997,52.858219,0.679,-0.804,0.925,51.89,-122.13,44.02
163.455,-0.006417,-0.01782,0.695,-0.511,1.338,-15.85,-70.79,113.35
163.46,12.501118,-0.016267,0.695,-0.511,1.338,-15.85,-70.79,113.35
163.465,64.806587,-0.014796,1.053,-0.712,1.335,-0.24,48.05,141.52
163.47,-0.007888,-144.463806,1.053,-0.712,1.335,-0.24,48.05,141.52
163.475,-0.009482,-0.005886,1.558,-1.177,0.654,207.07,167.07,219.09
163.48,26.860918,-0.011975,1.558,-1.177,0.654,207.07,167.07,219.09
163.485,55.285591,-0.007234,0.189,-0.25,1.022,-165.85,126.52,360.85
163.49,0.002125,13.678878,0.189,-0.25,1.022,-165.85,126.52,360.85
163.495,-0.004619,-0.021539,-0.055,0.347,0.882,-277.2,178.6,309.63
163.5,50.213245,-0.016594,-0.055,0.347,0.882,-277.2,178.6,309.63
163.505,17.950222,3.560666,0.751,0.435,0.376,-11.22,230.43,174.45
163.51,-0.009727,-0.004619,0.751,0.435,0.376,-11.22,230.43,174.45
163.515,-0.014428,-0.007888,0.58,0.391,0.159,-49.88,178.35,93.05
163.52,59.542385,-0.006213,0.58,0.391,0.159,-49.88,178.35,93.05
163.525,2.25187,38.148392,0.198,0.165,0.206,42.8,113.23,6.1
163.53,0.001226,-0.019986,0.198,0.165,0.206,42.8,113.23,6.1
163.535,-0.001471,-0.019291,0.357,-0.379,0.3,167.01,73.29,-55.0
163.54,33.518764,-0.019087,0.357,-0.379,0.3,167.01,73.29,-55.0
163.545,29.917227,17.426083,0.572,-0.88,0.507,173.05,26.46,-38.72
163.55,0.002371,-0.00327,0.572,-0.88,0.507,173.05,26.46,-38.72
163.555,0.003025,-0.00936,0.744,-1.096,0.854,86.1,-7.5,32.99
163.56,66.841835,-0.005967,0.744,-1.096,0.854,86.1,-7.5,32.99
163.565,57.515881,26.274002,0.688,-0.908,1.117,-45.12,0.91,123.78
163.57,-0.011608,-0.017493,0.649,-0.684,1.327,-93.05,52.2,188.9
163.575,-0.010708,-0.012997,0.649,-0.684,1.327,-93.05,52.2,188.9
163.58,65.655083,-0.018638,0.576,-0.565,1.293,-85.24,135.73,232.32
163.585,9.74162,53.67075,0.576,-0.565,1.293,-85.24,135.73,232.32
163.59,-0.01218,-0.016022,0.506,-0.502,0.934,-165.67,220.37,277.62
163.595,-0.009033,-0.013978,0.506,-0.502,0.934,-165.67,220.37,277.62
163.6,16.848238,-0.019741,0.323,-0.647,0.328,-270.37,243.54,321.34
163.605,-0.003147,37.470898,0.323,-0.647,0.328,-270.37,243.54,321.34
163.61,-0.006989,-0.00891,0.323,-0.878,-0.086,-282.32,190.3,372.74
163.615,61.078835,-0.008706,0.323,-0.878,-0.086,-282.32,190.3,372.74
163.62,19.921385,0.009564,0.428,-1.246,-0.036,-365.3,56.52,445.0
163.625,-0.000899,0.031716,0.428,-1.246,-0.036,-365.3,56.52,445.0
163.63,-0.001471,-0.017943,0.539,-1.49,0.53,-435.18,-79.21,529.15
163.635,9.703364,-0.016717,0.539,-1.49,0.53,-435.18,-79.21,529.15
163.64,1.752826,9.29996,0.732,-1.51,1.122,-461.28,-129.76,604.27
163.645,-0.011608,-0.017616,0.961,-1.893,1.587,-420.67,-109.63,679.94
163.65,-0.009155,-0.022112,0.961,-1.893,1.587,-420.67,-109.63,679.94
163.655,4.823277,-0.01782,1.196,-1.869,2.0,-342.62,-11.1,809.02
163.66,-0.001798,24.848476,1.196,-1.869,2.0,-342.62,-11.1,809.02
163.665,-0.004414,-0.001022,1.436,-1.217,2.0,-594.57,175.67,967.93
163.67,2.707509,-0.001798,1.436,-1.217,2.0,-594.57,175.67,967.93
163.675,26.811956,-0.007112,1.273,-0.13,1.909,-651.89,302.93,1024.57
163.68,0.002861,16.538183,1.273,-0.13,1.909,-651.89,302.93,1024.57
163.685,-0.005436,-0.018638,0.897,0.954,1.469,-596.59,401.65,959.09
163.69,1.706886,-0.016471,0.897,0.954,1.469,-596.59,401.65,959.09
163.695,56.095837,1.142529,0.414,1.668,0.758,-439.88,487.56,778.6
163.7,-0.012425,3.26737,0.414,1.668,0.758,-439.88,487.56,778.6
163.705,-0.012875,-0.015123,-0.192,2.0,0.048,-257.13,537.44,516.95
163.71,11.903082,-0.017044,-0.557,1.832,-0.71,-191.77,521.71,230.49
163.715,66.546585,16.629736,-0.557,1.832,-0.71,-191.77,521.71,230.49
163.72,-0.015123,-0.020558,-0.71,1.049,-1.295,178.05,447.87,-42.38
163.725,-0.011281,-0.019087,-0.71,1.049,-1.295,178.05,447.87,-42.38
163.73,53.782246,-0.012997,-0.651,-0.349,-1.594,405.49,301.4,-223.84
163.735,-0.012752,45.107624,-0.651,-0.349,-1.594,405.49,301.4,-223.84
163.74,-0.010054,-0.023583,-0.644,-1.614,-1.458,406.28,99.09,-247.93
163.745,17.131315,-0.021907,-0.644,-1.614,-1.458,406.28,99.09,-247.93
163.75,23.834774,-0.016267,-0.649,-2.0,-0.992,193.72,-79.88,-134.88
163.755,-0.001144,0.143215,-0.623,-1.563,-0.427,-99.57,-188.66,6.65
163.76,-0.002616,-0.018719,-0.623,-1.563,-0.427,-99.57,-188.66,6.65
163.765,27.580181,-0.016594,-0.552,-0.927,0.091,-175.18,-222.8,76.83
163.77,0.077411,32.248062,-0.552,-0.927,0.091,-175.18,-222.8,76.83
163.775,-0.004864,-0.025749,-0.565,-0.647,0.559,-96.65,-195.67,73.6
163.78,-0.001921,-0.019087,-0.565,-0.647,0.559,-96.65,-195.67,73.6
163.785,21.994482,-0.015123,-0.594,-0.692,0.807,-34.82,-105.98,49.57
163.79,-0.011158,55.191177,-0.594,-0.692,0.807,-34.82,-105.98,49.57
163.795,-0.010259,-0.022357,-0.645,-0.761,0.705,-23.66,17.32,37.44
163.8,-0.006213,-0.016349,-0.645,-0.761,0.705,-23.66,17.32,37.44
163.805,42.532703,-0.018638,-0.669,-0.696,0.213,-63.41,121.83,39.39
163.81,-0.013529,20.202011,-0.669,-0.696,0.213,-63.41,121.83,39.39
163.815,-0.007684,-0.016798,-0.684,-0.601,-0.299,-74.82,159.33,36.52
163.82,1.171385,-0.013978,-0.684,-0.601,-0.299,-74.82,159.33,36.52
163.825,58.495415,0.949941,-0.714,-0.589,-0.589,-50.79,131.83,24.51
163.83,0.000245,13.797324,-0.739,-0.625,-0.673,-25.3,73.9,13.35
163.835,0.00049,-0.013651,-0.739,-0.625,-0.673,-25.3,73.9,13.35
163.84,2.275985,-0.016594,-0.735,-0.623,-0.571,-3.96,10.98,5.91
163.845,42.867771,7.280732,-0.735,-0.623,-0.571,-3.96,10.98,5.91
163.85,-0.001798,0.051335,-0.706,-0.604,-0.317,29.88,-34.57,-4.94
163.855,0.000572,-0.006989,-0.706,-0.604,-0.317,29.88,-34.57,-4.94
163.86,26.346588,-0.002044,-0.684,-0.534,-0.106,70.73,-48.23,-22.26
163.865,-0.011281,24.069624,-0.684,-0.534,-0.106,70.73,-48.23,-22.26
163.87,-0.012425,-0.003392,-0.671,-0.325,-0.098,114.76,-40.24,-52.2
163.875,15.38372,-0.008787,-0.671,-0.325,-0.098,114.76,-40.24,-52.2
163.88,34.010204,-0.00846,-0.695,0.105,-0.29,205.12,-34.94,-111.95
163.885,-0.009727,32.080406,-0.695,0.105,-0.29,205.12,-34.94,-111.95
163.89,-0.010954,-0.02064,-0.623,0.574,-0.498,421.77,-57.93,-227.07
163.895,48.148891,-0.015245,-0.623,0.574,-0.498,421.77,-57.93,-227.07
163.9,24.035454,0.046022,-0.445,0.643,-0.489,767.8,-135.12,-385.91
163.905,0.000572,0.002861,-0.021,0.749,-0.038,1135.43,-268.35,-546.28
163.91,-0.001349,-0.007234,-0.021,0.749,-0.038,1135.43,-268.35,-546.28
163.915,34.190125,-0.003392,0.51,1.469,1.131,1572.93,-423.9,-701.4
163.92,0.012997,42.347553,0.51,1.469,1.131,1572.93,-423.9,-701.4
163.925,-0.003147,-0.006662,1.063,0.937,2.0,1586.28,-522.44,-868.66
163.93,-0.004741,-0.009237,1.063,0.937,2.0,1586.28,-522.44,-868.66
163.935,7.739395,-0.007807,1.406,0.783,2.0,1730.18,-503.9,-990.43
163.94,-0.014673,41.362137,1.406,0.783,2.0,1730.18,-503.9,-990.43
163.945,-0.010504,-0.019986,1.405,0.882,1.985,1643.54,-320.12,-1117.2
163.95,4.659953,-0.019414,1.778,0.447,1.999,1645.3,139.88,-1273.66
163.955,33.671459,0.040054,1.778,0.447,1.999,1645.3,139.88,-1273.66
163.96,-0.009727,1.487568,1.84,-0.966,2.0,1733.17,387.93,-1321.1
163.965,-0.009727,-0.006213,1.84,-0.966,2.0,1733.17,387.93,-1321.1
163.97,19.830486,-0.006662,0.998,-2.0,1.978,1331.83,371.52,-990.67
163.975,59.451733,24.917877,0.998,-2.0,1.978,1331.83,371.52,-990.67
163.98,-0.013324,-0.018719,0.074,-2.0,1.127,233.96,386.89,-373.6
163.985,-0.012057,-0.01545,0.074,-2.0,1.127,233.96,386.89,-373.6
163.99,54.032055,-0.020763,-0.19,-0.957,-0.293,-501.04,393.29,138.54
163.995,-0.013978,7.317925,-0.19,-0.957,-0.293,-501.04,393.29,138.54
164.0,-0.010177,-0.019741,-0.375,1.105,-0.702,-415.37,219.33,265.37
164.005,4.176603,-0.01737,-0.421,1.719,-0.546,-28.54,18.23,129.7
164.01,22.896849,-0.01737,-0.421,1.719,-0.546,-28.54,18.23,129.7
164.015,-0.012752,0.336048,-0.311,1.013,-0.049,299.15,-131.4,-13.05
164.02,-0.006989,-0.018515,-0.311,1.013,-0.049,299.15,-131.4,-13.05
164.025,4.185922,-0.014796,-0.226,0.056,0.592,272.87,-210.73,-48.29
164.03,-0.001349,26.036373,-0.226,0.056,0.592,272.87,-210.73,-48.29
164.035,0.000654,-0.01827,-0.205,-0.338,0.843,83.72,-192.2,43.9
164.04,0.328445,-0.016267,-0.205,-0.338,0.843,83.72,-192.2,43.9
164.045,0.691795,-0.013774,-0.227,0.258,0.667,-150.55,-149.7,169.15
164.05,-0.014101,45.668873,-0.227,0.258,0.667,-150.55,-149.7,169.15
164.055,-0.011076,-0.00564,-0.201,0.976,0.236,-141.59,-130.24,198.78
164.06,1.349749,-0.008706,-0.201,0.976,0.236,-141.59,-130.24,198.78
164.065,60.586334,-0.005886,-0.15,1.398,0.067,10.43,-165.3,131.34
164.07,-0.012302,37.5215,-0.161,1.388,0.346,164.57,-225.67,20.55
164.075,-0.014346,-0.013774,-0.161,1.388,0.346,164.57,-225.67,20.55
164.08,0.413459,-0.018188,-0.125,0.793,0.627,312.62,-230.49,-82.32
164.085,51.049397,0.022152,-0.125,0.793,0.627,312.62,-230.49,-82.32
164.09,-0.013079,7.458851,-0.027,0.171,0.669,323.29,-207.01,-94.57
164.095,-0.013447,-0.013079,-0.027,0.171,0.669,323.29,-207.01,-94.57
164.1,15.052333,-0.019741,0.022,0.124,0.809,190.18,-213.9,-22.99
164.105,38.07008,15.305737,0.022,0.124,0.809,190.18,-213.9,-22.99
164.11,-0.006989,-0.019986,0.09,0.446,0.854,73.29,-213.54,52.32
164.115,-0.009932,-0.018065,0.09,0.446,0.854,73.29,-213.54,52.32
164.12,64.727127,-0.018515,0.084,0.799,1.014,35.91,-217.93,81.65
164.125,64.73539,54.267067,0.084,0.799,1.014,35.91,-217.93,81.65
164.13,0.001553,-0.002698,0.065,0.946,1.127,61.52,-184.82,61.95
164.135,0.000899,-0.011608,0.065,0.946,1.127,61.52,-184.82,61.95
164.14,20.284981,-0.009482,0.065,0.911,1.014,111.71,-122.93,29.88
164.145,0.000572,54.091072,0.065,0.911,1.014,111.71,-122.93,29.88
164.15,0.000899,-0.02203,0.121,0.849,0.787,152.38,-78.23,9.57
164.155,5.232075,-0.014346,0.121,0.849,0.787,152.38,-78.23,9.57
164.16,34.482033,-0.015695,0.102,0.78,0.511,158.54,-63.66,3.84
164.165,-0.003065,36.917824,0.102,0.78,0.511,158.54,-63.66,3.84
164.17,0.003597,-0.019169,0.076,0.707,0.028,23.35,-72.62,-3.84
164.175,-0.002044,-0.020763,0.076,0.707,0.028,23.35,-72.62,-3.84
164.18,8.906938,-0.016717,0.226,0.96,0.167,35.79,-152.87,-10.12
164.185,0.005232,28.496607,0.226,0.96,0.167,35.79,-152.87,-10.12
164.19,-0.001921,-0.008338,0.115,1.418,0.62,-83.54,-220.85,-28.9
164.195,0.096948,-0.006335,0.16,1.412,1.021,19.57,-207.93,-121.52
164.2,2.643667,-0.00846,0.16,1.412,1.021,19.57,-207.93,-121.52
164.205,-0.010831,40.072144,0.339,0.723,1.028,170.0,-115.12,-216.65
164.21,-0.009155,-0.002616,0.339,0.723,1.028,170.0,-115.12,-216.65
164.215,5.026899,-0.005068,0.178,0.114,0.618,147.87,-15.24,-214.15
164.22,66.830795,-0.007234,0.178,0.114,0.618,147.87,-15.24,-214.15
164.225,0.003924,9.87666,-0.037,-0.13,0.189,-5.49,-11.04,-124.02
164.23,-0.004414,-0.016144,-0.037,-0.13,0.189,-5.49,-11.04,-124.02
164.235,26.628605,-0.011158,-0.221,-0.204,0.093,-41.52,-83.23,9.21
164.24,42.092354,3.299577,-0.221,-0.204,0.093,-41.52,-83.23,9.21
164.245,-0.010381,0.174931,0.275,-0.066,0.092,-96.71,-157.93,168.29
164.25,-0.011608,-0.005967,0.275,-0.066,0.092,-96.71,-157.93,168.29
164.255,43.151257,-0.004046,0.366,0.356,0.214,-302.87,-225.06,290.3
164.26,15.779359,-23.949787,0.366,0.356,0.214,-302.87,-225.06,290.3
164.265,-0.001022,-0.001676,0.495,0.581,0.39,-364.57,-287.32,331.77
164.27,-0.002125,-0.009033,0.692,0.407,0.465,-265.67,-343.6,331.22
164.275,59.521049,-0.005068,0.692,0.407,0.465,-265.67,-343.6,331.22
164.28,1.424626,46.737267,0.954,0.283,0.54,-227.2,-410.98,354.45
164.285,0.001553,-0.005967,0.954,0.283,0.54,-227.2,-410.98,354.45
164.29,0.002125,-0.00327,0.993,0.539,0.942,-290.18,-475.12,358.11
164.295,2.764157,-0.007234,0.993,0.539,0.942,-290.18,-475.12,358.11
164.3,0.021417,18.036053,1.457,0.766,1.343,-224.02,-453.35,312.07
164.305,-0.008706,-0.009155,1.457,0.766,1.343,-224.02,-453.35,312.07
164.31,0.000817,-0.007112,1.252,0.854,1.501,-88.72,-380.37,272.56
164.315,6.245286,1.478904,1.252,0.854,1.501,-88.72,-380.37,272.56
164.32,-0.016594,13.126537,0.885,0.73,1.498,-91.28,-288.72,193.78
164.325,-0.007684,-0.005313,0.885,0.73,1.498,-91.28,-288.72,193.78
164.33,0.04782,-0.007357,-0.23,0.367,1.373,-62.38,12.44,-37.44
164.335,0.912503,16.365623,-0.23,0.367,1.373,-62.38,12.44,-37.44
164.34,-0.01218,-0.022806,0.043,0.398,0.793,218.17,341.4,-155.12
164.345,-0.01455,-0.018964,0.043,0.398,0.793,218.17,341.4,-155.12
164.35,1.982199,-0.019087,0.56,0.449,0.559,-42.32,276.1,-87.87
164.355,0.002943,26.207706,0.674,0.349,0.142,-96.83,282.38,-30.12
164.36,-0.011158,-0.004741,0.674,0.349,0.142,-96.83,282.38,-30.12
164.365,-0.007357,-0.00564,0.727,0.361,0.271,-112.07,288.35,-15.43
164.37,12.537658,-0.009237,0.727,0.361,0.271,-112.07,288.35,-15.43
164.375,-0.016471,47.785213,0.686,0.373,0.749,-237.38,280.98,3.17
164.38,-0.011281,-0.019659,0.686,0.373,0.749,-237.38,280.98,3.17
164.385,0.581523,-0.021907,0.561,0.202,0.753,-215.0,265.43,21.16
164.39,6.082943,-0.014673,0.561,0.202,0.753,-215.0,265.43,21.16
164.395,-0.003147,42.641506,0.613,-0.065,0.74,-262.2,189.57,59.39
164.4,0.0,-0.017738,0.613,-0.065,0.74,-262.2,189.57,59.39
164.405,0.420325,-0.018515,0.531,-0.261,0.865,-387.87,98.29,98.23
164.41,7.633373,-0.019659,0.531,-0.261,0.865,-387.87,98.29,98.23
164.415,-0.016144,43.352757,0.493,-0.231,0.849,-421.04,58.48,150.55
164.42,-0.011526,-0.02346,0.493,-0.231,0.849,-421.04,58.48,150.55
164.425,0.004169,-0.019537,0.467,0.11,1.018,-394.02,35.98,181.52
164.43,21.10397,-0.010381,0.467,0.11,1.018,-394.02,35.98,181.52
164.435,-0.00846,8.527565,0.528,0.508,0.893,-233.54,48.72,174.7
164.44,-0.01218,-0.020763,0.528,0.508,0.893,-233.54,48.72,174.7
164.445,2.563068,-0.016144,0.367,0.412,0.948,-223.54,28.9,125.06
164.45,14.380157,-0.014918,0.367,0.412,0.948,-223.54,28.9,125.06
164.455,0.00564,0.081744,0.386,0.385,1.093,-106.04,72.99,94.15
164.46,-0.00045,-0.00936,0.386,0.385,1.093,-106.04,72.99,94.15
164.465,0.379699,-0.006989,0.413,0.333,0.839,49.94,153.29,70.0
164.47,45.449478,5.61202,0.413,0.333,0.839,49.94,153.29,70.0
164.475,0.00327,0.026485,0.381,0.113,0.833,21.52,185.24,45.67
164.48,-0.000572,-0.008787,0.381,0.113,0.833,21.52,185.24,45.67
164.485,0.096294,-0.006785,0.307,0.001,0.878,11.83,231.34,45.24
164.49,-3.559521,10.959599,0.307,0.001,0.878,11.83,231.34,45.24
164.495,0.001553,-2.257838,0.216,-0.086,0.924,15.3,276.1,47.5
164.5,-0.002248,-0.00327,0.216,-0.086,0.924,15.3,276.1,47.5
164.505,0.003842,-0.00564,0.17,0.037,1.129,-1.16,293.66,46.83
164.51,15.364429,2.410453,0.17,0.037,1.129,-1.16,293.66,46.83
164.515,0.003597,0.318554,0.172,0.071,0.973,3.9,305.85,44.15
164.52,0.002044,-0.007357,0.172,0.071,0.973,3.9,305.85,44.15
164.525,-0.000572,-0.009727,0.167,0.145,0.977,4.33,287.07,26.83
164.53,10.893059,0.008256,0.167,0.145,0.977,4.33,287.07,26.83
164.535,-0.011853,4.428864,0.094,0.103,1.006,-9.63,243.54,-0.43
164.54,-0.008583,-0.004169,0.094,0.103,1.006,-9.63,243.54,-0.43
164.545,61.831448,-0.006417,0.064,0.079,1.005,-16.04,199.09,-16.34
164.55,66.883858,0.608989,0.064,0.079,1.005,-16.04,199.09,-16.34
164.555,-0.012057,1.362501,0.008,0.034,1.002,-23.66,170.85,-34.21
164.56,-0.012057,-0.015695,0.008,0.034,1.002,-23.66,170.85,-34.21
164.565,53.41898,-0.012629,-0.149,0.078,1.154,-10.85,144.39,-39.15
164.57,34.736416,1.059886,0.036,0.06,0.91,6.28,30.18,-37.44
164.575,-0.000777,0.573594,0.036,0.06,0.91,6.28,30.18,-37.44
164.58,-0.003515,-0.017289,0.045,0.045,0.992,-8.23,-22.8,-2.62
164.585,58.142281,-0.017616,0.045,0.045,0.992,-8.23,-22.8,-2.62
164.59,51.346291,1.911572,0.05,0.159,1.006,-8.84,-7.8,-1.52
164.595,-0.008706,4.681942,0.05,0.159,1.006,-8.84,-7.8,-1.52
164.6,-0.006335,-0.01827,-0.011,0.052,0.992,1.71,-3.72,-12.07
164.605,27.27356,-0.013324,-0.011,0.052,0.992,1.71,-3.72,-12.07
164.61,58.297024,0.189972,-0.008,-0.004,0.989,3.72,-3.84,-14.45
164.615,0.000981,2.68462,-0.008,-0.004,0.989,3.72,-3.84,-14.45
164.62,0.000981,-0.004741,-0.037,-0.027,0.983,5.24,-5.67,-9.51
164.625,12.73,-0.007357,-0.037,-0.027,0.983,5.24,-5.67,-9.51
164.63,24.418177,0.086812,-0.039,-0.031,0.999,6.28,-9.57,-4.51
164.635,-0.00282,4.400499,-0.039,-0.031,0.999,6.28,-9.57,-4.51
164.64,0.004251,-0.00564,-0.059,-0.023,0.988,-0.06,-3.48,-9.33
164.645,2.862985,-0.006539,-0.059,-0.023,0.988,-0.06,-3.48,-9.33
164.65,5.408069,0.241062,-0.061,0.008,0.989,1.16,2.5,-11.77
164.655,0.007929,2.766119,-0.061,0.008,0.989,1.16,2.5,-11.77
164.66,0.000817,-0.009237,-0.031,0.023,0.99,3.35,-1.16,-13.17
164.665,0.002943,-0.006417,-0.031,0.023,0.99,3.35,-1.16,-13.17
164.67,0.259617,1.251084,-0.036,0.019,0.997,2.68,-2.38,-15.98
164.675,8.2e-05,6.913376,-0.036,0.019,0.997,2.68,-2.38,-15.98
164.68,-0.00327,-0.00282,-0.036,0.019,0.997,2.68,-2.38,-15.98
164.685,66.213966,-0.005313,-0.041,0.018,0.993,-2.32,-2.8,-15.61
164.69,21.521761,0.025504,-0.001,0.044,0.988,-3.23,-3.23,-8.35
164.695,-0.011975,6.727655,-0.001,0.044,0.988,-3.23,-3.23,-8.35
164.7,-0.012752,-0.012997,-0.001,0.044,0.988,-3.23,-3.23,-8.35
164.705,50.62188,-0.008583,-0.007,0.035,0.991,0.24,3.29,-2.62
164.71,56.87019,0.034741,-0.007,0.035,0.991,0.24,3.29,-2.62
164.715,0.002698,21.073723,-0.021,0.026,0.995,0.55,5.67,1.59
164.72,-0.004046,-0.012997,-0.021,0.026,0.995,0.55,5.67,1.59
164.725,2.571406,-0.018719,-0.013,0.031,0.989,-1.34,1.59,1.59
164.73,28.6735,-0.014796,-0.013,0.031,0.989,-1.34,1.59,1.59
164.735,0.002289,45.696995,-0.013,0.032,0.992,0.73,-1.22,1.52
164.74,-0.003065,-0.006539,-0.013,0.032,0.992,0.73,-1.22,1.52
164.745,-0.001349,-0.004169,-0.017,0.029,0.992,0.85,-1.83,0.79
164.75,25.946863,-0.008338,-0.017,0.029,0.992,0.85,-1.83,0.79
164.755,3.1056,29.907091,-0.029,0.024,0.994,-0.12,0.98,-1.52
164.76,-0.001594,-0.004169,-0.029,0.024,0.994,-0.12,0.98,-1.52
164.765,-0.005191,-0.006662,-0.038,0.008,0.995,-3.66,4.63,-4.33
164.77,38.988304,-0.005191,-0.038,0.008,0.995,-3.66,4.63,-4.33
164.775,15.436854,32.869724,-0.024,0.023,0.984,-4.33,3.72,-5.67
164.78,0.000327,0.000245,-0.024,0.023,0.984,-4.33,3.72,-5.67
164.785,0.0,-0.001349,-0.037,0.008,0.987,-0.24,-0.37,-6.71
164.79,64.995087,-0.006866,-0.037,0.008,0.987,-0.24,-0.37,-6.71
164.795,41.514915,30.056274,-0.005,0.037,0.992,-0.06,-1.34,-7.44
164.8,-0.001594,-0.005518,-0.005,0.037,0.992,-0.06,-1.34,-7.44
164.805,-0.000245,-0.009932,-0.014,0.048,0.992,1.04,-1.22,-5.61
164.81,64.037788,-0.005886,-0.014,0.048,0.992,1.04,-1.22,-5.61
164.815,62.876865,10.199711,-0.011,0.039,0.987,1.71,-1.83,-0.49
164.82,0.004251,0.080354,-0.011,0.039,0.987,1.71,-1.83,-0.49
164.825,-0.001022,-0.019864,-0.011,0.04,0.992,2.56,-1.89,5.55
164.83,0.949287,-0.015,-0.011,0.04,0.992,2.56,-1.89,5.55
164.835,-0.011281,36.684444,-0.034,0.034,0.992,-0.49,0.12,6.1
164.84,-0.010831,-0.019169,-0.034,0.034,0.992,-0.49,0.12,6.1
164.845,-0.014101,-0.019537,-0.028,0.032,0.994,-2.99,2.99,2.74
164.85,9.288434,-0.014918,-0.028,0.032,0.994,-2.99,2.99,2.74
164.855,-77.494652,0.440679,-0.012,0.027,0.993,-5.55,5.12,-0.12
164.86,-0.001676,1.848466,-0.012,0.027,0.993,-5.55,5.12,-0.12
164.865,-0.010054,-0.020885,-0.02,0.019,0.987,-4.94,5.61,-0.61
164.87,37.109924,-0.017289,-0.02,0.019,0.987,-4.94,5.61,-0.61
164.875,35.054073,0.324849,-0.011,0.02,0.985,-1.28,2.44,-0.49
164.88,-0.011281,2.346121,-0.011,0.02,0.985,-1.28,2.44,-0.49
164.885,-0.007684,-0.00564,-0.015,0.024,0.988,0.24,0.3,-0.85
164.89,29.248894,-0.007234,-0.015,0.024,0.988,0.24,0.3,-0.85
164.895,62.024689,0.650842,-0.022,0.024,0.99,-0.49,-0.49,-0.98
164.9,0.000654,12.675967,-0.022,0.024,0.99,-0.49,-0.49,-0.98
164.905,0.001471,-0.008583,-0.02,0.027,0.991,-0.43,-0.73,-0.67
164.91,0.398663,-0.006785,-0.02,0.027,0.991,-0.43,-0.73,-0.67
164.915,16.352953,-0.006662,-0.019,0.029,0.994,-1.46,-0.98,0.73
164.92,0.000817,5.845561,-0.019,0.029,0.994,-1.46,-0.98,0.73
164.925,-0.001676,-0.01218,-0.023,0.023,0.99,-2.13,0.12,3.17
164.93,0.158828,-0.017289,-0.023,0.023,0.99,-2.13,0.12,3.17
164.935,2.825383,-0.017616,-0.021,0.03,0.992,-0.06,0.67,8.17
164.94,-0.003965,41.559464,-0.021,0.03,0.992,-0.06,0.67,8.17
164.945,-0.013079,-0.023256,-0.027,0.023,0.994,1.16,1.1,5.43
164.95,-0.010954,-0.020191,-0.027,0.023,0.994,1.16,1.1,5.43
164.955,59.282032,-0.016921,-0.02,0.022,0.996,3.29,2.74,0.3
164.96,48.517555,42.197556,-0.02,0.022,0.996,3.29,2.74,0.3
164.965,-0.010177,0.000654,-0.02,0.022,0.996,3.29,2.74,0.3
164.97,-0.008256,-0.008583,-0.021,0.033,0.987,6.04,4.45,-2.2
164.975,63.708523,-0.00609,-0.021,0.033,0.987,6.04,4.45,-2.2
164.98,30.089624,50.667244,-0.025,0.029,0.987,1.46,2.07,-5.79
164.985,0.002125,-0.022234,-0.025,0.029,0.987,1.46,2.07,-5.79
164.99,-0.001144,-0.018842,-0.022,0.026,0.991,-1.34,0.3,-6.65
164.995,1.251984,-0.019087,-0.022,0.026,0.991,-1.34,0.3,-6.65
165.0,0.04921,7.831028,-0.02,0.028,0.986,-1.83,-0.61,-4.39
165.005,0.002044,0.001798,-0.02,0.028,0.986,-1.83,-0.61,-4.39
165.01,-0.001798,-0.004741,-0.025,0.031,0.989,-3.6,-2.62,-1.89
165.015,7.585962,-0.00564,-0.025,0.031,0.989,-3.6,-2.62,-1.89
165.02,1.382937,3.517832,-0.029,0.028,0.989,-4.51,-3.54,0.3
165.025,-0.00564,0.130217,-0.029,0.028,0.989,-4.51,-3.54,0.3
165.03,-0.00045,-0.017616,-0.024,0.026,0.994,-5.55,-4.15,2.07
165.035,11.846353,-0.01455,-0.024,0.026,0.994,-5.55,-4.15,2.07
165.04,3.710093,3.770501,-0.031,0.022,0.99,-1.95,-0.98,3.84
165.045,0.004251,0.075613,-0.031,0.022,0.99,-1.95,-0.98,3.84
165.05,-0.004414,-0.01827,-0.027,0.041,0.99,-0.85,-0.24,6.77
165.055,49.525043,-0.01782,-0.027,0.041,0.99,-0.85,-0.24,6.77
165.06,65.192413,0.001226,-0.008,0.072,0.996,0.24,0.12,7.07
165.065,-0.009033,26.62141,-0.008,0.072,0.996,0.24,0.12,7.07
165.07,-0.007561,-0.01737,0.1,0.029,1.004,0.06,2.62,-3.23
165.075,4.29554,-0.013651,0.1,0.029,1.004,0.06,2.62,-3.23
165.08,32.695526,-0.016349,0.111,0.007,1.039,10.61,13.66,-17.74
165.085,-0.009155,-144.78096,0.111,0.007,1.039,10.61,13.66,-17.74
165.09,-0.012875,-0.013324,-0.185,0.027,1.005,12.74,28.23,-29.63
165.095,2.807563,-0.014223,-0.185,0.027,1.005,12.74,28.23,-29.63
165.1,9.723145,-0.017738,-0.065,0.009,0.997,3.35,25.67,-26.52
165.105,0.003924,34.779003,-0.065,0.009,0.997,3.35,25.67,-26.52
165.11,0.000327,-0.014673,-0.079,0.014,0.982,-0.24,28.41,-16.28
165.115,-0.004046,-0.017738,-0.079,0.014,0.982,-0.24,28.41,-16.28
165.12,6.034633,-0.01782,-0.031,0.023,0.978,-2.68,23.54,-6.46
165.125,0.530515,27.19198,-0.031,0.023,0.978,-2.68,23.54,-6.46
165.13,0.002698,-0.009605,-0.025,0.004,0.972,-2.5,20.91,1.04
165.135,-0.000777,-0.012057,-0.025,0.004,0.972,-2.5,20.91,1.04
165.14,7.408415,-0.009605,-0.052,0.013,0.982,-1.95,15.55,7.8
165.145,0.319781,25.263487,-0.052,0.013,0.982,-1.95,15.55,7.8
165.15,-0.010381,-0.013447,-0.108,0.032,1.01,-1.83,13.96,7.68
165.155,-0.015123,-0.016717,-0.108,0.032,1.01,-1.83,13.96,7.68
165.16,5.599594,-0.016022,-0.081,0.037,0.954,-1.77,20.37,1.28
165.165,1.617868,23.347012,-0.081,0.037,0.954,-1.77,20.37,1.28
165.17,-0.002125,-0.019659,-0.059,0.028,0.963,-4.57,6.28,-0.18
165.175,0.00139,-0.018719,-0.059,0.028,0.963,-4.57,6.28,-0.18
165.18,64.124023,-0.013978,-0.039,0.043,1.03,-1.1,2.13,-1.83
165.185,42.803928,35.780853,-0.039,0.043,1.03,-1.1,2.13,-1.83
165.19,-0.01173,-0.003515,-0.049,0.002,0.998,-1.04,14.57,-10.18
165.195,-0.007807,-0.009932,-0.049,0.002,0.998,-1.04,14.57,-10.18
165.2,63.93095,-0.011975,-0.03,-0.031,1.014,-1.83,18.48,-11.22
165.205,0.005559,25.430162,-0.03,-0.031,1.014,-1.83,18.48,-11.22
165.21,-0.001226,-0.018392,0.013,-0.055,1.01,-6.1,26.4,-3.78
165.215,34.707069,-0.016022,0.013,-0.055,1.01,-6.1,26.4,-3.78
165.22,55.013138,-0.022234,-0.018,-0.025,0.984,-8.96,31.52,8.96
165.225,-0.010259,47.204918,-0.018,-0.025,0.984,-8.96,31.52,8.96
165.23,-0.011158,-0.018964,-0.05,-0.022,0.909,-8.48,23.6,13.29
165.235,16.085899,-0.018515,-0.05,-0.022,0.909,-8.48,23.6,13.29
165.24,50.241116,-0.017738,-0.044,-0.04,0.922,-2.13,-5.0,17.38
165.245,-0.014673,6.529999,-0.044,-0.04,0.922,-2.13,-5.0,17.38
165.25,-0.012302,-0.019087,-0.076,-0.007,0.913,0.12,-30.3,24.27
165.255,26.426615,-0.022684,-0.076,-0.007,0.913,0.12,-30.3,24.27
165.26,47.243092,-0.007684,-0.103,0.039,1.022,1.52,-46.71,27.32
165.265,0.004251,7.770048,-0.103,0.039,1.022,1.52,-46.71,27.32
165.27,-0.000123,-0.008706,-0.096,-0.034,1.09,-1.52,-35.91,26.46
165.275,3.231975,-0.007807,-0.096,-0.034,1.09,-1.52,-35.91,26.46
165.28,64.562912,0.001553,-0.086,-0.092,1.004,-7.5,-4.76,32.93
165.285,-0.014223,28.347507,-0.086,-0.092,1.004,-7.5,-4.76,32.93
165.29,-0.012057,-0.025177,-0.158,0.151,1.001,-6.89,5.43,48.11
165.295,4.743822,-0.01782,-0.158,0.151,1.001,-6.89,5.43,48.11
165.3,19.446783,-0.020763,-0.166,0.224,1.0,-0.06,12.32,36.28
165.305,-0.007807,17.277145,-0.166,0.224,1.0,-0.06,12.32,36.28
165.31,-0.005967,-0.005191,-0.1,-0.047,0.982,-1.65,15.55,16.04
165.315,0.082316,-0.001594,-0.1,-0.047,0.982,-1.65,15.55,16.04
165.32,2.558899,-0.007112,-0.087,0.045,1.076,6.16,14.88,21.52
165.325,0.009973,18.797167,-0.087,0.045,1.076,6.16,14.88,21.52
165.33,-0.017943,-0.009482,-0.08,0.066,0.958,-2.99,33.17,11.83
165.335,0.068828,-0.009809,-0.08,0.066,0.958,-2.99,33.17,11.83
165.34,1.192638,-0.00846,-0.073,-0.006,0.942,-7.01,25.49,7.26
165.345,0.367601,16.429464,-0.073,-0.006,0.942,-7.01,25.49,7.26
165.35,-0.014101,-0.00327,-0.055,0.104,0.937,-3.23,8.9,8.48
165.355,-0.010381,-0.005763,-0.055,0.104,0.937,-3.23,8.9,8.48
165.36,5.591175,-0.001349,-0.037,0.075,0.988,0.3,-6.16,4.09
165.365,0.001226,26.619122,-0.037,0.075,0.988,0.3,-6.16,4.09
165.37,-0.001471,-0.009727,-0.049,0.061,1.012,0.91,-5.73,3.48
165.375,15.745109,-0.008787,-0.049,0.061,1.012,0.91,-5.73,3.48
165.38,39.488003,-0.004169,-0.068,0.022,1.017,-0.49,1.83,4.02
165.385,0.002616,50.26989,-0.068,0.022,1.017,-0.49,1.83,4.02
165.39,0.001144,-0.016022,-0.082,0.018,0.981,-0.73,8.66,6.04
165.395,0.103079,-0.01782,-0.082,0.018,0.981,-0.73,8.66,6.04
165.4,30.093956,-0.02064,-0.083,0.031,0.977,0.49,6.89,5.37
165.405,0.007602,44.821358,-0.083,0.031,0.977,0.49,6.89,5.37
165.41,0.002452,0.000817,-0.083,0.03,1.009,0.37,4.27,2.2
165.415,-0.001349,-0.005967,-0.083,0.03,1.009,0.37,4.27,2.2
165.42,10.813768,-0.007888,-0.105,-0.0,1.03,-0.55,14.88,-0.91
165.425,1.025718,17.544121,-0.105,-0.0,1.03,-0.55,14.88,-0.91
165.43,-0.010954,-0.017738,-0.091,0.002,1.003,-1.89,26.83,0.79
165.435,-0.006989,-0.017493,-0.091,0.002,1.003,-1.89,26.83,0.79
165.44,10.570172,-0.015245,-0.083,0.013,0.997,-2.74,33.96,4.63
165.445,2.87868,21.879877,-0.083,0.013,0.997,-2.74,33.96,4.63
165.45,0.006621,0.324031,-0.113,0.017,0.978,-3.29,36.16,5.3
165.455,0.001553,-0.006662,-0.113,0.017,0.978,-3.29,36.16,5.3
165.46,24.553791,-0.010177,-0.101,0.03,0.937,-0.61,26.89,3.54
165.465,41.821045,6.001445,-0.101,0.03,0.937,-0.61,26.89,3.54
165.47,-0.00846,0.057711,-0.111,0.033,0.954,1.46,11.04,2.01
165.475,-0.011076,-0.007807,-0.111,0.033,0.954,1.46,11.04,2.01
165.48,13.401605,-0.010054,-0.109,0.026,0.958,0.55,-1.46,0.79
165.485,45.034794,0.136266,-0.109,0.026,0.958,0.55,-1.46,0.79
165.49,-0.009237,21.189064,-0.099,0.028,0.986,-0.73,-10.49,2.26
165.495,-0.006335,-0.016717,-0.099,0.028,0.986,-0.73,-10.49,2.26
165.5,1.010922,-0.016921,-0.092,0.024,0.999,-1.59,-10.0,5.24
165.505,4.808726,-0.011281,-0.092,0.024,0.999,-1.59,-10.0,5.24
165.51,0.00564,13.886997,-0.104,0.017,0.99,-2.62,-6.83,8.11
165.515,0.001553,-0.005763,-0.104,0.017,0.99,-2.62,-6.83,8.11
165.52,0.000654,-0.005313,-0.113,0.036,0.985,-1.59,-5.98,10.18
165.525,1.55983,0.00564,-0.113,0.036,0.985,-1.59,-5.98,10.18
165.53,0.129236,8.44901,-0.101,0.038,1.004,-0.37,-4.27,7.68
165.535,0.000327,-0.007439,-0.101,0.038,1.004,-0.37,-4.27,7.68
165.54,-0.00045,-0.002044,-0.101,0.038,1.004,-0.37,-4.27,7.68
165.545,53.130749,-0.009482,-0.107,0.024,0.987,-0.67,1.1,4.27
165.55,-0.000123,-41.596493,-0.107,0.024,0.987,-0.67,1.1,4.27
165.555,-0.001798,-0.021907,-0.094,-0.001,0.976,-1.34,-0.12,3.29
165.56,58.240131,-0.019537,-0.094,-0.001,0.976,-1.34,-0.12,3.29
165.565,62.450329,-0.01545,-0.106,0.018,0.994,-0.37,-3.29,4.88
165.57,-0.014673,11.227798,-0.106,0.018,0.994,-0.37,-3.29,4.88
165.575,-0.009482,-0.019741,-0.098,0.018,0.987,-0.24,-0.61,4.02
165.58,62.398342,-0.011403,-0.098,0.018,0.987,-0.24,-0.61,4.02
165.585,64.37114,-0.014673,-0.101,0.016,0.987,-1.04,-1.22,5.55
165.59,-0.003392,44.613567,-0.101,0.016,0.987,-1.04,-1.22,5.55
165.595,-0.000777,-0.005763,-0.103,0.022,0.993,-1.65,-1.1,8.35
165.6,16.846439,-0.007439,-0.103,0.022,0.993,-1.65,-1.1,8.35
165.605,29.860334,-0.005068,-0.105,0.049,0.987,-2.13,0.12,9.21
165.61,-0.010177,53.290966,-0.105,0.049,0.987,-2.13,0.12,9.21
165.615,-0.009932,-0.023583,-0.095,0.015,0.989,-1.22,0.49,7.2
165.62,-0.006785,-0.016144,-0.095,0.015,0.989,-1.22,0.49,7.2
165.625,9.821238,-0.021212,-0.1,0.016,0.988,1.4,2.44,9.27
165.63,-0.011526,-140.935013,-0.1,0.016,0.988,1.4,2.44,9.27
165.635,-0.015695,-0.021335,-0.122,0.047,0.981,1.89,2.99,7.32
165.64,-0.011853,-0.02391,-0.122,0.047,0.981,1.89,2.99,7.32
165.645,24.953188,-0.017166,-0.114,0.014,0.957,1.59,-0.98,1.95
165.65,2.757536,24.601364,-0.114,0.014,0.957,1.59,-0.98,1.95
165.655,-0.009727,0.000572,-0.097,-0.004,0.955,3.96,-10.98,1.34
165.66,-0.007357,-0.001471,-0.097,-0.004,0.955,3.96,-10.98,1.34
165.665,37.105427,-0.008011,-0.085,0.015,0.973,5.79,-20.85,3.78
165.67,8.854457,35.330692,-0.085,0.015,0.973,5.79,-20.85,3.78
165.675,-0.008256,-0.021008,-0.081,0.029,1.005,3.48,-24.45,4.7
165.68,-0.010708,-0.015245,-0.081,0.029,1.005,3.48,-24.45,4.7
165.685,62.715179,-0.020191,-0.083,0.025,1.014,1.28,-17.99,3.9
165.69,39.558304,19.926371,-0.083,0.025,1.014,1.28,-17.99,3.9
165.695,-0.009605,-0.023706,-0.088,0.02,0.972,1.34,-12.07,4.09
165.7,-0.014673,-0.018842,-0.088,0.02,0.972,1.34,-12.07,4.09
165.705,37.554932,-0.016267,-0.087,0.02,0.962,2.93,-18.17,5.43
165.71,31.799618,23.347258,-0.087,0.02,0.962,2.93,-18.17,5.43
165.715,-0.011608,0.081253,-0.079,0.023,0.989,3.48,-25.98,7.07
165.72,-0.012548,-0.002943,-0.079,0.023,0.989,3.48,-25.98,7.07
165.725,1.823126,-0.006662,-0.074,0.035,1.011,1.89,-23.41,7.68
165.73,8.931215,0.102915,-0.074,0.035,1.011,1.89,-23.41,7.68
165.735,-0.013529,-0.013978,-0.075,0.033,0.999,0.43,-15.73,5.18
165.74,-0.009932,-0.018964,-0.075,0.033,0.999,0.43,-15.73,5.18
165.745,1.288278,-0.016798,-0.072,0.024,0.985,-0.18,-12.93,3.72
165.75,4.935919,0.136348,-0.072,0.024,0.985,-0.18,-12.93,3.72
165.755,-0.00891,4.025214,-0.074,0.021,0.977,1.4,-14.63,4.76
165.76,-0.012057,-0.014918,-0.074,0.021,0.977,1.4,-14.63,4.76
165.765,0.61136,-0.021212,-0.068,0.03,0.986,1.59,-18.35,5.98
165.77,2.111108,0.959751,-0.068,0.03,0.986,1.59,-18.35,5.98
165.775,0.006539,15.791947,-0.062,0.027,0.995,0.85,-19.82,5.98
165.78,0.003515,-0.004414,-0.062,0.027,0.995,0.85,-19.82,5.98
165.785,-0.002371,-0.005068,-0.056,0.023,1.0,-0.55,-18.54,7.26
165.79,46.564537,0.094741,-0.056,0.023,1.0,-0.55,-18.54,7.26
165.795,-0.003392,4.947444,-0.055,0.042,1.005,-1.77,-14.94,10.55
165.8,-0.003147,-0.019537,-0.055,0.042,1.005,-1.77,-14.94,10.55
165.805,53.379494,-0.017738,-0.051,0.042,0.998,-1.22,-9.27,10.85
165.81,9.87993,0.086566,-0.051,0.042,0.998,-1.22,-9.27,10.85
165.815,-0.009155,15.722466,-0.048,0.026,0.986,-0.67,-6.4,9.63
165.82,-0.012997,-0.006335,-0.048,0.026,0.986,-0.67,-6.4,9.63
165.825,46.332062,-0.010054,-0.055,0.027,0.986,0.0,-7.07,7.62
165.83,60.780228,-0.006539,-0.055,0.027,0.986,0.0,-7.07,7.62
165.835,-0.011608,13.080516,-0.053,0.024,0.985,0.49,-8.48,5.0
165.84,-0.008256,-0.016717,-0.053,0.024,0.985,0.49,-8.48,5.0
165.845,16.086224,-0.016267,-0.058,0.029,0.994,0.85,-9.33,3.17
165.85,52.99334,-0.02109,-0.058,0.029,0.994,0.85,-9.33,3.17
165.855,-0.000695,46.820885,-0.063,0.031,0.996,0.67,-7.44,2.01
165.86,-0.002248,-0.018842,-0.063,0.031,0.996,0.67,-7.44,2.01
165.865,-0.001022,-0.015572,-0.048,0.023,0.99,0.12,-5.85,0.91
165.87,19.055149,-0.017738,-0.048,0.023,0.99,0.12,-5.85,0.91
165.875,-0.000123,43.615807,-0.049,0.025,0.991,-0.12,-5.49,1.52
165.88,0.002125,-0.00846,-0.049,0.025,0.991,-0.12,-5.49,1.52
165.885,0.001553,-0.00609,-0.074,0.047,0.986,0.67,-4.82,1.95
165.89,46.758518,-0.008706,-0.074,0.047,0.986,0.67,-4.82,1.95
165.895,9.43124,38.609016,-0.122,0.097,0.977,0.37,-7.13,-0.12
165.9,-0.009033,-0.002698,-0.122,0.097,0.977,0.37,-7.13,-0.12
165.905,-0.013978,-0.006662,-0.122,0.097,0.977,0.37,-7.13,-0.12
165.91,62.573269,-0.003392,-0.037,0.041,1.003,-0.18,-10.79,-5.37
165.915,58.200729,13.152205,-0.021,0.002,1.013,-1.65,-5.55,-6.46
165.92,0.00049,-0.002044,-0.021,0.002,1.013,-1.65,-5.55,-6.46
165.925,0.002616,-0.010708,-0.06,0.022,0.967,-1.89,-2.93,-6.89
165.93,56.777573,-0.00846,-0.06,0.022,0.967,-1.89,-2.93,-6.89
165.935,64.579826,15.237318,-0.057,0.059,0.973,-0.37,-11.65,-7.8
165.94,-0.013079,-0.017044,-0.057,0.059,0.973,-0.37,-11.65,-7.8
165.945,-0.011403,-0.017493,-0.029,0.03,0.99,0.85,-14.76,-10.67
165.95,44.84539,-0.01173,-0.029,0.03,0.99,0.85,-14.76,-10.67
165.955,34.269989,45.543728,-0.061,0.067,0.971,0.37,-16.52,-10.12
165.96,-0.013651,-0.003719,-0.061,0.067,0.971,0.37,-16.52,-10.12
165.965,-0.009033,-0.005518,-0.104,0.09,0.988,-3.29,-23.41,-15.0
165.97,58.547813,-0.005313,-0.104,0.09,0.988,-3.29,-23.41,-15.0
165.975,33.409389,-79.101524,-0.07,0.106,1.034,-21.46,-30.61,-23.84
165.98,-0.00045,-0.01782,-0.07,0.106,1.034,-21.46,-30.61,-23.84
165.985,-0.001798,-0.014796,-0.076,-0.003,1.01,-26.71,-30.73,-27.5
165.99,32.349018,-0.016267,-0.076,-0.003,1.01,-26.71,-30.73,-27.5
165.995,-0.011853,4.464095,-0.066,0.058,1.002,10.91,-32.87,-14.82
166.0,-0.008787,-0.008706,-0.066,0.058,1.002,10.91,-32.87,-14.82
166.005,21.397346,-0.008256,-0.052,0.073,0.993,7.01,-45.49,-17.32
166.01,29.866629,0.047738,-0.052,0.073,0.993,7.01,-45.49,-17.32
166.015,-0.011403,4.82581,-0.143,0.082,1.013,13.6,-57.5,-20.24
166.02,-0.010177,-0.003965,-0.143,0.082,1.013,13.6,-57.5,-20.24
166.025,48.80423,-0.003515,-0.093,0.028,1.169,66.95,-60.55,-12.99
166.03,33.574677,10.129084,-0.093,0.028,1.169,66.95,-60.55,-12.99
166.035,-0.011281,-0.001144,0.055,-0.339,1.228,275.18,-38.23,25.24
166.04,-0.008256,-0.006989,0.055,-0.339,1.228,275.18,-38.23,25.24
166.045,19.811357,-0.007561,0.446,-0.132,1.203,544.63,-79.09,59.94
166.05,2.997044,9.339278,0.06,0.77,0.353,685.0,-68.23,52.87
166.055,-0.002248,0.001144,0.06,0.77,0.353,685.0,-68.23,52.87
166.06,-0.004496,-0.001594,0.165,0.672,0.145,202.2,-76.52,-29.63
166.065,65.800583,-0.006785,0.165,0.672,0.145,202.2,-76.52,-29.63
166.07,-21.90526,33.742661,0.158,-0.109,0.976,-141.95,-112.99,-93.05
166.075,-0.003597,-0.002698,0.158,-0.109,0.976,-141.95,-112.99,-93.05
166.08,-0.00609,-0.005436,0.151,-0.107,1.238,-95.79,-52.5,-17.68
166.085,3.499767,-0.008787,0.151,-0.107,1.238,-95.79,-52.5,-17.68
166.09,-0.005518,41.746658,0.07,0.284,1.023,15.49,-22.74,20.43
166.095,-0.01218,-0.002371,0.07,0.284,1.023,15.49,-22.74,20.43
166.1,-0.011526,-0.000899,0.098,0.36,0.824,38.11,-17.2,17.74
166.105,6.793704,-0.007561,0.098,0.36,0.824,38.11,-17.2,17.74
166.11,0.940704,43.641312,0.093,0.324,0.882,-31.16,-31.83,0.79
166.115,0.001226,-0.003147,0.093,0.324,0.882,-31.16,-31.83,0.79
166.12,8.2e-05,-0.004414,0.075,0.246,1.052,-50.98,-33.66,-6.46
166.125,31.582832,-0.008338,0.075,0.246,1.052,-50.98,-33.66,-6.46
166.13,17.202269,47.719738,0.074,0.28,1.032,17.2,-11.71,-0.12
166.135,-0.01455,-0.019986,0.074,0.28,1.032,17.2,-11.71,-0.12
166.14,-0.015368,-0.013529,0.122,0.233,0.979,64.09,-3.11,-9.45
166.145,52.564514,-0.016594,0.122,0.233,0.979,64.09,-3.11,-9.45
166.15,-0.003065,59.941948,0.202,0.207,0.996,77.62,-6.28,-22.38
166.155,-0.005763,-0.021335,0.202,0.207,0.996,77.62,-6.28,-22.38
166.16,24.413027,-0.013896,0.163,0.222,1.038,111.04,-4.33,-28.72
166.165,51.757294,-0.016798,0.163,0.222,1.038,111.04,-4.33,-28.72
166.17,-0.012302,26.454571,0.138,0.276,0.945,156.59,6.52,-26.34
166.175,-0.00891,-0.018964,0.138,0.276,0.945,156.59,6.52,-26.34
166.18,1.11024,-0.017289,0.161,0.207,0.843,121.28,-8.66,-8.9
166.185,-6.883662,-0.019414,0.161,0.207,0.843,121.28,-8.66,-8.9
166.19,0.000654,22.360123,0.132,0.274,0.855,26.34,-30.98,10.3
166.195,-0.000899,-0.00846,0.132,0.274,0.855,26.34,-30.98,10.3
166.2,-0.000695,-0.00609,0.074,0.233,0.83,-27.5,-23.66,16.1
166.205,2.279745,-0.009605,0.074,0.233,0.83,-27.5,-23.66,16.1
166.21,0.180163,21.655737,0.085,0.314,0.89,-33.17,-1.59,18.48
166.215,0.002698,-0.004619,0.085,0.314,0.89,-33.17,-1.59,18.48
166.22,-0.000572,-0.004864,0.113,0.288,0.982,-21.22,13.72,19.82
166.225,7.12689,-0.005191,0.113,0.288,0.982,-21.22,13.72,19.82
166.23,3.217915,23.334177,0.122,0.312,0.969,-20.0,8.96,30.0
166.235,0.002289,-0.009605,0.122,0.312,0.969,-20.0,8.96,30.0
166.24,0.00188,-0.00891,0.12,0.55,0.905,0.37,2.99,30.73
166.245,66.147095,-0.006662,0.12,0.55,0.905,0.37,2.99,30.73
166.25,-0.010259,67.727364,0.132,0.327,0.909,30.55,1.16,0.0
166.255,-0.012057,-0.027098,0.132,0.327,0.909,30.55,1.16,0.0
166.26,0.007193,-0.01455,0.123,0.325,0.955,42.8,-0.85,3.05
166.265,2.239445,-0.017616,0.123,0.325,0.955,42.8,-0.85,3.05
166.27,-0.001349,41.460472,0.115,0.316,0.905,42.87,2.01,8.17
166.275,-0.000695,-0.018964,0.115,0.316,0.905,42.87,2.01,8.17
166.28,-0.000572,-0.020558,0.128,0.288,0.895,32.2,2.87,2.38
166.285,18.706839,-0.016022,0.128,0.288,0.895,32.2,2.87,2.38
166.29,3.245463,10.162763,0.143,0.242,0.831,13.6,1.1,4.39
166.295,-0.00846,0.002289,0.143,0.242,0.831,13.6,1.1,4.39
166.3,-0.013651,-0.004496,0.135,0.249,0.806,5.06,-3.54,9.02
166.305,-33.461174,-0.008583,0.135,0.249,0.806,5.06,-3.54,9.02
166.31,62.068584,0.031716,0.119,0.33,0.938,8.23,-1.95,15.91
166.315,0.004414,7.788931,0.119,0.33,0.938,8.23,-1.95,15.91
166.32,-0.003392,-0.001921,0.129,0.324,0.946,15.06,0.79,17.99
166.325,1.419967,-0.008256,0.129,0.324,0.946,15.06,0.79,17.99
166.33,23.176821,-0.009809,0.129,0.324,0.946,15.06,0.79,17.99
166.335,-0.00891,5.753436,0.125,0.262,0.819,23.05,7.26,28.17
166.34,-0.011281,-0.00891,0.125,0.262,0.819,23.05,7.26,28.17
166.345,-0.015368,-0.007684,0.133,0.316,0.853,24.09,14.45,39.7
166.35,8.014216,-0.006989,0.133,0.316,0.853,24.09,14.45,39.7
166.355,0.014142,54.004345,0.136,0.31,0.888,-15.61,9.39,33.84
166.36,-0.004169,-0.022357,0.136,0.31,0.888,-15.61,9.39,33.84
166.365,-0.001921,-0.015245,0.146,0.331,0.912,-33.84,9.45,31.28
166.37,27.777918,-0.013896,0.146,0.331,0.912,-33.84,9.45,31.28
166.375,9.721102,45.284435,0.143,0.268,0.644,-17.2,12.5,38.41
166.38,-0.013774,-0.019414,0.143,0.268,0.644,-17.2,12.5,38.41
166.385,-0.012629,-0.017166,0.148,0.353,0.804,2.93,18.17,40.49
166.39,59.480587,-0.016022,0.148,0.353,0.804,2.93,18.17,40.49
166.395,-0.009033,40.204319,0.142,0.311,0.817,3.96,15.43,35.98
166.4,-0.011281,-0.015572,0.142,0.311,0.817,3.96,15.43,35.98
166.405,7.374818,-0.016022,0.133,0.107,0.524,23.54,11.71,42.5
166.41,7.23283,-0.013774,0.133,0.107,0.524,23.54,11.71,42.5
166.415,0.001717,32.66724,0.128,0.25,0.666,41.34,16.34,51.71
166.42,-0.001676,-0.005068,0.128,0.25,0.666,41.34,16.34,51.71
166.425,0.064332,-0.008706,0.159,0.263,0.705,23.6,19.82,44.02
166.43,1.854842,-0.010831,0.159,0.263,0.705,23.6,19.82,44.02
166.435,0.093269,34.964397,0.17,0.299,0.744,5.67,20.73,41.65
166.44,-0.012057,0.000245,0.17,0.299,0.744,5.67,20.73,41.65
166.445,-0.006785,-0.008583,0.16,0.314,0.837,-0.3,16.59,46.16
166.45,60.554615,-0.00564,0.16,0.314,0.837,-0.3,16.59,46.16
166.455,1.80645,18.965477,0.138,0.291,0.929,-0.79,17.99,53.9
166.46,-0.006539,-0.018065,0.138,0.291,0.929,-0.79,17.99,53.9
166.465,-0.010054,-0.018188,0.152,0.259,0.577,5.61,22.74,64.15
166.47,61.297256,-0.019291,0.152,0.259,0.577,5.61,22.74,64.15
166.475,28.511564,0.652395,0.147,0.325,0.719,-1.95,23.66,61.77
166.48,-0.00282,-0.01545,0.147,0.325,0.719,-1.95,23.66,61.77
166.485,-0.002125,-0.015899,0.146,0.202,0.559,-6.77,25.18,63.6
166.49,57.504601,-0.018188,0.146,0.202,0.559,-6.77,25.18,63.6
166.495,47.241131,0.511796,0.159,0.249,0.703,3.17,28.23,73.54
166.5,-0.001594,1.732145,0.159,0.249,0.703,3.17,28.23,73.54
166.505,0.00188,-0.008787,0.161,0.26,0.7,-8.48,29.21,70.85
166.51,0.595665,-0.006785,0.161,0.26,0.7,-8.48,29.21,70.85
166.515,57.49242,0.368418,0.173,0.172,0.478,-22.5,24.82,66.28
166.52,0.003025,15.065248,0.173,0.172,0.478,-22.5,24.82,66.28
166.525,0.002289,-0.017166,0.167,0.317,0.771,10.37,31.83,73.35
166.53,-0.000777,-0.017166,0.167,0.317,0.771,10.37,31.83,73.35
166.535,4.668944,-0.020191,0.172,0.246,0.623,31.52,36.34,73.72
166.54,0.000899,6.142289,0.172,0.246,0.623,31.52,36.34,73.72
166.545,-0.002943,-0.018065,0.185,0.298,0.787,17.32,32.68,69.94
166.55,-0.000777,-0.022112,0.185,0.298,0.787,17.32,32.68,69.94
166.555,30.210115,-0.020191,0.182,0.286,0.604,3.96,29.02,71.22
166.56,0.005395,29.425295,0.182,0.286,0.604,3.96,29.02,71.22
166.565,-0.001226,-0.008133,0.166,0.198,0.347,-0.98,28.17,65.37
166.57,65.934074,-0.004741,0.166,0.198,0.347,-0.98,28.17,65.37
166.575,50.40379,-0.003515,0.148,0.372,0.896,2.99,28.96,63.72
166.58,-0.003597,39.12727,0.148,0.372,0.896,2.99,28.96,63.72
166.585,-0.002493,-0.009482,0.162,0.362,0.826,6.16,28.9,66.59
166.59,7.670075,-0.009155,0.162,0.362,0.826,6.16,28.9,66.59
166.595,8.123916,-0.010504,0.162,0.362,0.826,6.16,28.9,66.59
166.6,-0.001921,33.208466,0.167,0.395,0.792,8.72,26.28,59.02
166.605,-0.002371,-0.006866,0.167,0.395,0.792,8.72,26.28,59.02
166.61,-0.001594,-0.004169,0.173,0.286,0.578,13.84,28.05,37.68
166.615,5.549404,-0.009932,0.173,0.286,0.578,13.84,28.05,37.68
166.62,0.275884,31.894438,0.17,0.322,0.812,39.94,28.72,32.62
166.625,0.001553,-0.016594,0.17,0.322,0.812,39.94,28.72,32.62
166.63,-0.004169,-0.015245,0.172,0.344,0.823,73.05,31.34,39.09
166.635,63.030952,-0.01455,0.172,0.344,0.823,73.05,31.34,39.09
166.64,5.865915,20.022257,0.144,0.432,0.82,92.13,31.83,37.26
166.645,-0.009809,-0.021662,0.144,0.432,0.82,92.13,31.83,37.26
166.65,-0.010627,-0.014346,0.146,0.252,0.566,68.72,32.5,16.28
166.655,31.411909,-0.018638,0.146,0.252,0.566,68.72,32.5,16.28
166.66,40.580994,20.637949,0.151,0.317,0.738,76.16,32.07,16.52
166.665,-0.008256,-0.002371,0.151,0.317,0.738,76.16,32.07,16.52
166.67,-0.010259,-0.013774,0.157,0.309,0.587,87.8,35.24,19.57
166.675,14.380892,-0.003965,0.157,0.309,0.587,87.8,35.24,19.57
166.68,18.684032,0.805828,0.122,0.224,0.62,76.89,22.62,13.23
166.685,-0.009605,-0.015899,0.122,0.224,0.62,76.89,22.62,13.23
166.69,-0.008256,-0.01545,0.129,0.349,0.693,87.01,30.49,10.61
166.695,2.710697,-0.014796,0.129,0.349,0.693,87.01,30.49,10.61
166.7,0.006458,2.673749,0.111,0.355,0.769,95.06,37.01,1.1
166.705,-0.001226,5.565834,0.111,0.355,0.769,95.06,37.01,1.1
166.71,-0.002493,-0.01737,0.125,0.381,0.855,114.15,47.74,-8.41
166.715,12.061337,-0.013774,0.125,0.381,0.855,114.15,47.74,-8.41
166.72,5.087471,0.077738,0.133,0.494,0.829,135.37,50.43,-8.9
166.725,-0.002943,6.129701,0.133,0.494,0.829,135.37,50.43,-8.9
166.73,-0.002125,-0.018638,0.104,0.384,0.822,138.05,47.32,-15.0
166.735,33.712006,-0.018515,0.104,0.384,0.822,138.05,47.32,-15.0
166.74,21.153831,0.093596,0.114,0.319,0.668,143.66,61.16,-24.45
166.745,0.00139,6.191254,0.114,0.319,0.668,143.66,61.16,-24.45
166.75,0.001226,-0.008583,0.142,0.102,0.515,144.27,69.27,-32.2
166.755,60.121212,0.001226,0.142,0.102,0.515,144.27,69.27,-32.2
166.76,54.990009,0.012425,0.113,0.237,0.66,143.78,68.78,-35.12
166.765,-0.011403,8.160292,0.113,0.237,0.66,143.78,68.78,-35.12
166.77,-0.009809,-0.014673,0.117,0.513,0.879,168.11,83.29,-42.68
166.775,60.587559,-0.011853,0.117,0.513,0.879,168.11,83.29,-42.68
166.78,64.789665,0.040381,0.167,0.344,0.714,169.94,74.27,-52.8
166.785,-0.015368,0.007684,0.167,0.344,0.714,169.94,74.27,-52.8
166.79,-0.004986,-0.014796,-0.013,0.607,0.864,80.49,-10.06,-21.77
166.795,19.056948,-0.016471,-0.013,0.607,0.864,80.49,-10.06,-21.77
166.8,44.602779,6.266785,-0.172,0.747,1.0,53.54,45.49,-10.24
166.805,-0.007112,0.005232,-0.172,0.747,1.0,53.54,45.49,-10.24
166.81,-0.009237,-0.009237,-0.048,0.679,0.823,53.29,120.37,-27.13
166.815,37.530167,-0.020558,-0.048,0.679,0.823,53.29,120.37,-27.13
166.82,61.276985,5.642755,-0.097,0.794,0.817,116.59,124.88,-20.61
166.825,-0.002943,-0.021907,-0.042,0.715,0.658,159.88,139.33,-28.23
166.83,0.002452,-0.017943,-0.042,0.715,0.658,159.88,139.33,-28.23
166.835,64.786476,-0.02064,-0.089,0.701,0.591,190.18,114.88,-32.99
166.84,-0.010504,53.537506,-0.089,0.701,0.591,190.18,114.88,-32.99
166.845,-0.00564,-0.02064,-0.162,0.807,0.682,183.66,96.95,-51.34
166.85,22.161484,-0.01827,-0.162,0.807,0.682,183.66,96.95,-51.34
166.855,65.168053,-0.015123,-0.146,0.796,0.712,168.96,116.34,-69.15
166.86,-0.011853,-127.610367,-0.146,0.796,0.712,168.96,116.34,-69.15
166.865,-0.012875,-0.007807,-0.166,0.888,0.642,229.21,137.87,-75.98
166.87,45.876339,-0.004169,-0.166,0.888,0.642,229.21,137.87,-75.98
166.875,37.962017,-0.003147,-0.191,0.872,0.536,306.4,146.71,-94.76
166.88,-0.010259,-136.873093,-0.191,0.872,0.536,306.4,146.71,-94.76
166.885,-0.006866,-0.009482,-0.174,0.824,0.35,402.26,138.41,-109.7
166.89,58.82296,-0.00936,-0.174,0.824,0.35,402.26,138.41,-109.7
166.895,25.797518,4.050963,-0.213,0.825,0.292,402.99,94.33,-118.6
166.9,-0.012629,-0.006866,-0.239,0.738,0.33,332.32,63.35,-115.91
166.905,-0.013202,-0.003719,-0.239,0.738,0.33,332.32,63.35,-115.91
166.91,28.514345,-0.011608,-0.305,0.838,0.312,187.13,52.74,-99.09
166.915,9.696171,40.171703,-0.305,0.838,0.312,187.13,52.74,-99.09
166.92,0.001553,-0.016921,-0.349,0.832,0.273,124.27,59.33,-83.78
166.925,-0.001676,-0.014428,-0.349,0.832,0.273,124.27,59.33,-83.78
166.93,65.153915,-0.01737,-0.388,0.857,0.075,183.9,63.29,-55.91
166.935,6.395122,53.914833,-0.388,0.857,0.075,183.9,63.29,-55.91
166.94,-0.000123,-0.01827,-0.423,0.917,0.09,114.27,26.22,-52.56
166.945,-0.000777,-0.016349,-0.423,0.917,0.09,114.27,26.22,-52.56
166.95,63.669861,-0.012548,-0.514,0.929,0.003,76.22,21.34,-43.17
166.955,-0.003965,27.558683,-0.514,0.929,0.003,76.22,21.34,-43.17
166.96,-0.002943,-0.021785,-0.485,0.877,0.039,84.94,5.49,-37.13
166.965,17.548943,-0.016594,-0.485,0.877,0.039,84.94,5.49,-37.13
166.97,23.985426,-0.015,-0.457,0.906,0.093,24.33,-3.84,-36.04
166.975,-0.012997,28.294209,-0.457,0.906,0.093,24.33,-3.84,-36.04
166.98,-0.010504,-0.001471,-0.482,0.901,0.031,13.41,3.23,-27.2
166.985,0.376347,-0.005313,-0.482,0.901,0.031,13.41,3.23,-27.2
166.99,63.03986,-0.007357,-0.518,0.945,-0.004,-1.16,-7.13,-20.43
166.995,-0.01173,26.455717,-0.518,0.945,-0.004,-1.16,-7.13,-20.43
167.0,-0.010954,-0.010054,-0.407,0.969,0.014,-25.61,-21.65,-15.49
167.005,16.096851,-0.009155,-0.407,0.969,0.014,-25.61,-21.65,-15.49
167.01,41.511074,0.631223,-0.325,0.975,0.163,-83.9,-41.89,-21.46
167.015,-0.011526,1.374926,-0.325,0.975,0.163,-83.9,-41.89,-21.46
167.02,-0.007888,-0.010381,-0.364,0.891,0.33,-129.02,-49.27,-30.3
167.025,34.6353,-0.009482,-0.372,0.86,0.445,-112.8,-43.54,-25.91
167.03,-101.697144,19.249535,-0.372,0.86,0.445,-112.8,-43.54,-25.91
167.035,-0.003719,0.860432,-0.374,0.858,0.451,-73.6,-25.85,-16.71
167.04,-0.006213,-0.005068,-0.374,0.858,0.451,-73.6,-25.85,-16.71
167.045,44.550789,-0.009809,-0.368,0.875,0.411,-33.72,-15.49,-9.63
167.05,18.288231,48.024235,-0.368,0.875,0.411,-33.72,-15.49,-9.63
167.055,-0.002616,-0.023379,-0.36,0.898,0.362,-5.24,-12.8,-7.68
167.06,-0.003065,-0.023011,-0.36,0.898,0.362,-5.24,-12.8,-7.68
167.065,59.706688,-0.022684,-0.359,0.918,0.297,5.73,-18.54,-10.73
167.07,52.151218,49.259949,-0.359,0.918,0.297,5.73,-18.54,-10.73
167.075,-0.010627,-0.017044,-0.365,0.904,0.317,5.18,-33.66,-17.32
167.08,-0.011608,-0.020885,-0.365,0.904,0.317,5.18,-33.66,-17.32
167.085,52.192989,-0.017943,-0.367,0.891,0.349,-6.16,-36.1,-17.99
167.09,-0.00564,46.851948,-0.367,0.891,0.349,-6.16,-36.1,-17.99
167.095,-0.003392,-0.013896,-0.372,0.875,0.371,-20.12,-28.84,-14.7
167.1,58.140484,-0.015899,-0.372,0.875,0.371,-20.12,-28.84,-14.7
167.105,65.304161,-0.007357,-0.366,0.886,0.375,-32.13,-15.73,-8.72
167.11,-0.000572,7.610157,-0.366,0.886,0.375,-32.13,-15.73,-8.72
167.115,-0.002698,-0.021785,-0.368,0.879,0.374,-34.15,-10.61,-7.38
167.12,60.573822,-0.019537,-0.374,0.864,0.419,-22.93,-12.32,-5.61
167.125,-155.712326,0.015368,-0.374,0.864,0.419,-22.93,-12.32,-5.61
167.13,-0.004169,2.764566,-0.369,0.868,0.431,-5.85,-5.79,-1.22
167.135,-0.003065,-0.008706,-0.369,0.868,0.431,-5.85,-5.79,-1.22
167.14,61.317284,-0.007684,-0.368,0.879,0.388,8.29,2.62,2.01
167.145,63.525826,-0.009482,-0.368,0.879,0.388,8.29,2.62,2.01
167.15,-0.000327,15.102115,-0.368,0.884,0.37,14.21,4.27,2.99
167.155,0.001226,-0.020191,-0.368,0.884,0.37,14.21,4.27,2.99
167.16,27.739742,-0.019537,-0.365,0.892,0.359,14.63,3.84,3.23
167.165,62.086079,-0.012629,-0.365,0.892,0.359,14.63,3.84,3.23
167.17,-0.012548,15.188436,-0.365,0.892,0.359,14.63,3.84,3.23
167.175,-0.006785,-0.021907,-0.364,0.899,0.342,9.7,2.87,1.89
167.18,-0.002125,-0.016717,-0.364,0.899,0.342,9.7,2.87,1.89
167.185,6.157167,-0.014346,-0.363,0.896,0.347,1.83,-0.18,-0.12
167.19,-0.012997,49.374474,-0.363,0.896,0.347,1.83,-0.18,-0.12
167.195,-0.010504,-0.021008,-0.362,0.893,0.353,-4.27,-2.26,-1.46
167.2,-0.011158,-0.015817,-0.362,0.893,0.353,-4.27,-2.26,-1.46
167.205,8.282334,-0.016798,-0.365,0.887,0.362,-7.8,-3.48,-2.26
167.21,0.154332,60.572105,-0.365,0.887,0.362,-7.8,-3.48,-2.26
167.215,-0.000123,-0.002125,-0.368,0.88,0.381,-7.8,-3.66,-2.32
167.22,0.001226,-0.006335,-0.368,0.88,0.381,-7.8,-3.66,-2.32
167.225,20.736122,-0.007888,-0.368,0.879,0.388,-3.17,-1.89,-1.16
167.23,4.535784,48.888592,-0.368,0.879,0.388,-3.17,-1.89,-1.16
167.235,-0.002943,-0.021335,-0.369,0.88,0.388,3.66,0.67,0.49
167.24,-0.002125,-0.015123,-0.369,0.88,0.388,3.66,0.67,0.49
167.245,46.744129,-0.012752,-0.367,0.884,0.379,9.76,2.99,1.95
167.25,24.752998,55.404037,-0.367,0.884,0.379,9.76,2.99,1.95
167.255,0.000981,-0.002371,-0.365,0.892,0.356,12.01,3.96,2.56
167.26,-0.004741,-0.007112,-0.365,0.892,0.356,12.01,3.96,2.56
167.265,4.556792,-0.006785,-0.365,0.894,0.346,9.33,3.05,1.89
167.27,-0.078882,33.779366,-0.365,0.894,0.346,9.33,3.05,1.89
167.275,-0.007439,-0.004292,-0.365,0.897,0.344,3.23,0.79,0.43
167.28,-0.005886,-0.019659,-0.365,0.897,0.344,3.23,0.79,0.43
167.285,43.920712,-0.019169,-0.365,0.896,0.345,-3.66,-1.65,-1.1
167.29,1.577078,11.374365,-0.365,0.896,0.345,-3.66,-1.65,-1.1
167.295,0.002616,-0.001022,-0.366,0.892,0.358,-8.6,-3.35,-2.26
167.3,-0.003842,-0.004414,-0.366,0.892,0.358,-8.6,-3.35,-2.26
167.305,58.462963,-0.00282,-0.368,0.884,0.367,-10.24,-3.84,-2.5
167.31,17.213549,11.608397,-0.368,0.884,0.367,-10.24,-3.84,-2.5
167.315,-0.002044,-2.274309,-0.368,0.884,0.371,-8.41,-4.45,-2.01
167.32,0.00376,-0.012057,-0.368,0.884,0.371,-8.41,-4.45,-2.01
167.325,66.540283,-0.011076,-0.366,0.884,0.38,-5.55,-3.9,-1.28
167.33,40.42691,17.204802,-0.366,0.884,0.38,-5.55,-3.9,-1.28
167.335,-0.009605,0.502069,-0.366,0.881,0.379,-2.38,-2.2,-0.61
167.34,-0.010708,-0.004986,-0.366,0.881,0.379,-2.38,-2.2,-0.61
167.345,39.417133,-0.006662,-0.366,0.884,0.377,1.04,-1.04,0.18
167.35,-51.830864,7.150269,-0.366,0.884,0.377,1.04,-1.04,0.18
167.355,-0.005886,0.012834,-0.366,0.888,0.372,2.99,-0.12,0.55
167.36,-0.00282,-0.004864,-0.366,0.888,0.372,2.99,-0.12,0.55
167.365,0.696291,-0.00936,-0.364,0.89,0.362,2.74,0.0,0.43
167.37,3.387043,0.037847,-0.364,0.89,0.362,2.74,0.0,0.43
167.375,0.000981,5.534036,-0.364,0.888,0.357,0.49,-0.61,-0.12
167.38,-0.00045,-0.017044,-0.364,0.888,0.357,0.49,-0.61,-0.12
167.385,-0.002125,-0.013324,-0.364,0.89,0.361,-2.44,-1.65,-0.79
167.39,3.544154,0.077656,-0.364,0.89,0.361,-2.44,-1.65,-0.79
167.395,0.004087,16.120638,-0.364,0.889,0.36,-4.63,-2.74,-1.4
167.4,-0.003392,-0.018188,-0.364,0.889,0.36,-4.63,-2.74,-1.4
167.405,0.001226,-0.018065,-0.365,0.887,0.365,-6.4,-3.96,-1.89
167.41,8.617974,0.035068,-0.365,0.887,0.365,-6.4,-3.96,-1.89
167.415,-0.001921,13.424901,-0.364,0.885,0.378,-7.62,-4.57,-2.13
167.42,-0.000777,-0.003515,-0.364,0.885,0.378,-7.62,-4.57,-2.13
167.425,61.558834,-0.007234,-0.366,0.88,0.385,-6.65,-3.9,-1.83
167.43,33.557346,-0.001921,-0.366,0.88,0.385,-6.65,-3.9,-1.83
167.435,0.000899,14.719636,-0.368,0.878,0.39,-2.87,-2.07,-0.91
167.44,-0.002248,-0.004292,-0.368,0.878,0.39,-2.87,-2.07,-0.91
167.445,18.047333,-0.00891,-0.366,0.879,0.387,2.62,0.24,0.43
167.45,65.620995,-0.008787,-0.366,0.879,0.387,2.62,0.24,0.43
167.455,-0.013529,14.085389,-0.363,0.884,0.378,6.34,1.95,1.34
167.46,-0.00846,-0.018065,-0.363,0.884,0.378,6.34,1.95,1.34
167.465,15.692057,-0.015123,-0.366,0.888,0.365,6.71,2.01,1.28
167.47,39.97961,-0.015899,-0.366,0.888,0.365,6.71,2.01,1.28
167.475,-0.007807,50.788799,-0.366,0.889,0.365,4.02,1.04,0.67
167.48,-0.009482,-0.018719,-0.366,0.889,0.365,4.02,1.04,0.67
167.485,-0.010627,-0.019087,-0.365,0.889,0.367,1.89,0.3,0.3
167.49,8.955737,-0.01455,-0.365,0.889,0.367,1.89,0.3,0.3
167.495,1.590892,17.096655,-0.365,0.889,0.367,1.89,0.3,0.3
167.5,-0.015123,-0.022684,-0.363,0.887,0.37,1.04,0.12,0.06
167.505,-0.01173,-0.018188,-0.363,0.887,0.37,1.04,0.12,0.06
167.51,63.936672,-0.015695,-0.364,0.89,0.365,0.0,-0.06,-0.18
167.515,3.582165,16.281837,-0.364,0.89,0.365,0.0,-0.06,-0.18
167.52,-0.001144,-0.005191,-0.365,0.89,0.362,-1.77,-0.85,-0.55
167.525,0.001471,-0.002125,-0.365,0.89,0.362,-1.77,-0.85,-0.55
167.53,51.241329,-0.002248,-0.364,0.886,0.368,-3.41,-1.46,-1.1
167.535,245.413895,17.250742,-0.364,0.886,0.368,-3.41,-1.46,-1.1
167.54,-0.000327,-0.004169,-0.364,0.883,0.376,-3.48,-1.46,-1.1
167.545,0.000817,-0.005436,-0.364,0.883,0.376,-3.48,-1.46,-1.1
167.55,36.56028,-0.009033,-0.365,0.883,0.379,-1.34,-1.16,-0.49
167.555,30.384964,17.00445,-0.365,0.883,0.379,-1.34,-1.16,-0.49
167.56,-0.013651,-0.027425,-0.367,0.885,0.378,1.22,-0.43,0.24
167.565,-0.015899,-0.002493,-0.367,0.885,0.378,1.22,-0.43,0.24
167.57,8.196177,-0.005886,-0.365,0.886,0.37,2.26,0.18,0.3
167.575,22.027262,0.067357,-0.365,0.886,0.37,2.26,0.18,0.3
167.58,0.006294,3.992353,-0.364,0.886,0.368,1.34,-0.12,0.06
167.585,-0.001798,-0.01782,-0.364,0.886,0.368,1.34,-0.12,0.06
167.59,0.003025,-0.018188,-0.365,0.887,0.367,-0.37,-0.98,-0.37
167.595,6.224932,0.119509,-0.365,0.887,0.367,-0.37,-0.98,-0.37
167.6,-0.012752,4.174069,-0.366,0.885,0.373,-1.4,-1.4,-0.61
167.605,-0.010831,-0.018392,-0.366,0.885,0.373,-1.4,-1.4,-0.61
167.61,-0.010708,-0.017289,-0.364,0.884,0.377,-1.34,-1.16,-0.55
167.615,2.355031,0.109128,-0.364,0.884,0.377,-1.34,-1.16,-0.55
167.62,-0.008706,4.431561,-0.367,0.886,0.376,-0.61,-0.79,-0.3
167.625,-0.00936,-0.01545,-0.367,0.886,0.376,-0.61,-0.79,-0.3
167.63,-0.010259,-0.017166,-0.365,0.885,0.374,0.0,-0.49,-0.18
167.635,5.044229,0.324195,-0.365,0.885,0.374,0.0,-0.49,-0.18
167.64,0.002044,10.960825,-0.364,0.886,0.374,0.49,-0.24,-0.06
167.645,0.0,-0.017616,-0.364,0.886,0.374,0.49,-0.24,-0.06
167.65,-0.000695,-0.016144,-0.365,0.886,0.372,0.98,-0.12,0.0
167.655,48.749134,-0.016144,-0.365,0.886,0.372,0.98,-0.12,0.0
167.66,-0.001022,53.57568,-0.366,0.885,0.374,1.59,0.18,-0.06
167.665,-0.006866,-0.003597,-0.366,0.885,0.374,1.59,0.18,-0.06
167.67,1.091603,-0.011076,-0.365,0.887,0.369,1.83,0.3,0.12
167.675,5.91496,-0.009932,-0.365,0.887,0.369,1.83,0.3,0.12
167.68,-0.010708,46.000835,-0.365,0.888,0.366,1.34,0.18,0.06
167.685,-0.016022,-0.019087,-0.365,0.888,0.366,1.34,0.18,0.06
167.69,-0.008787,-0.016144,-0.366,0.889,0.367,0.24,-0.24,-0.24
167.695,7.360023,-0.01827,-0.366,0.889,0.367,0.24,-0.24,-0.24
167.7,0.191525,34.836308,-0.364,0.887,0.366,-0.85,-0.49,-0.43
167.705,-0.01218,-0.002943,-0.364,0.887,0.366,-0.85,-0.49,-0.43
167.71,-0.00936,-0.00609,-0.365,0.885,0.369,-1.65,-0.79,-0.61
167.715,23.690987,-0.009809,-0.365,0.885,0.369,-1.65,-0.79,-0.61
167.72,6.722341,34.40601,-0.364,0.885,0.373,-1.52,-0.91,-0.55
167.725,-0.00045,-0.019537,-0.364,0.885,0.373,-1.52,-0.91,-0.55
167.73,-0.002044,-0.018188,-0.366,0.885,0.373,-0.85,-0.73,-0.37
167.735,47.532467,-0.015572,-0.366,0.885,0.373,-0.85,-0.73,-0.37
167.74,23.049055,34.364811,-0.365,0.886,0.372,-0.3,-0.67,-0.3
167.745,0.001144,-0.001594,-0.365,0.886,0.372,-0.3,-0.67,-0.3
167.75,-0.002698,-0.005967,-0.365,0.887,0.369,-0.18,-0.67,-0.3
167.755,57.487846,-0.009809,-0.365,0.887,0.369,-0.18,-0.67,-0.3
167.76,64.397461,19.930622,-0.365,0.886,0.37,-0.3,-0.79,-0.18
167.765,-0.009932,-0.018065,-0.365,0.886,0.37,-0.3,-0.79,-0.18
167.77,-0.012875,-0.017044,-0.364,0.888,0.371,-0.43,-0.85,-0.3
167.775,56.790573,-0.014673,-0.364,0.888,0.371,-0.43,-0.85,-0.3
167.78,-0.005191,60.253551,-0.365,0.887,0.37,-0.61,-0.85,-0.43
167.785,0.000981,-0.025054,-0.365,0.887,0.37,-0.61,-0.85,-0.43
167.79,4.301753,-0.015572,-0.363,0.888,0.369,-0.85,-0.98,-0.37
167.795,8.524868,-0.019864,-0.363,0.888,0.369,-0.85,-0.98,-0.37
167.8,-0.018638,48.685459,-0.366,0.888,0.373,-1.16,-0.98,-0.49
167.805,-0.007888,-0.005191,-0.366,0.888,0.373,-1.16,-0.98,-0.49
167.81,0.009809,-0.009932,-0.366,0.886,0.373,-1.1,-1.04,-0.61
167.815,1.678031,-0.010708,-0.366,0.886,0.373,-1.1,-1.04,-0.61
167.82,0.000899,50.061691,-0.366,0.885,0.374,-0.79,-1.04,-0.43
167.825,-0.000245,-0.019414,-0.366,0.885,0.374,-0.79,-1.04,-0.43
167.83,0.001226,-0.020191,-0.365,0.884,0.375,-0.18,-0.73,-0.24
167.835,7.153865,-0.017616,-0.365,0.884,0.375,-0.18,-0.73,-0.24
167.84,1.582391,58.458302,-0.366,0.885,0.372,0.24,-0.49,-0.12
167.845,0.001798,-0.004864,-0.366,0.885,0.372,0.24,-0.49,-0.12
167.85,-0.004741,-0.010627,-0.365,0.885,0.373,0.3,-0.37,-0.06
167.855,45.358986,-0.005436,-0.365,0.885,0.373,0.3,-0.37,-0.06
167.86,12.263489,13.284465,-0.365,0.886,0.371,0.49,-0.3,-0.12
167.865,-0.002616,-0.026648,-0.365,0.886,0.371,0.49,-0.3,-0.12
167.87,-0.002943,-0.020109,-0.365,0.885,0.371,0.3,-0.37,-0.12
167.875,60.23933,-0.021907,-0.365,0.885,0.371,0.3,-0.37,-0.12
167.88,30.852535,9.735081,-0.366,0.887,0.372,0.0,-0.49,-0.24
167.885,-0.008787,-0.013324,-0.366,0.887,0.372,0.0,-0.49,-0.24
167.89,-0.007112,-0.019537,-0.365,0.887,0.372,-0.24,-0.55,-0.37
167.895,61.457474,-0.015572,-0.365,0.887,0.372,-0.24,-0.55,-0.37
167.9,40.886391,7.865688,-0.362,0.886,0.369,-0.3,-0.55,-0.24
167.905,0.00049,0.00564,-0.362,0.886,0.369,-0.3,-0.55,-0.24
167.91,0.000654,-0.003065,-0.364,0.887,0.371,-0.3,-0.55,-0.24
167.915,46.995983,-0.002943,-0.364,0.887,0.371,-0.3,-0.55,-0.24
167.92,60.845135,7.442829,-0.365,0.888,0.373,-0.18,-0.55,-0.3
167.925,-0.015695,0.008828,-0.365,0.888,0.373,-0.18,-0.55,-0.3
167.93,-0.006866,-0.015572,-0.367,0.886,0.372,-0.18,-0.43,-0.3
167.935,19.376972,-0.020109,-0.367,0.886,0.372,-0.18,-0.43,-0.3
167.94,36.01292,5.48033,-0.365,0.886,0.371,-0.18,-0.49,-0.24
167.945,-0.015368,0.016103,-0.365,0.886,0.371,-0.18,-0.49,-0.24
167.95,-0.008787,-0.008583,-0.364,0.888,0.37,-0.3,-0.61,-0.3
167.955,7.521221,-0.010259,-0.364,0.888,0.37,-0.3,-0.61,-0.3
167.96,0.003188,-22.697313,-0.363,0.886,0.37,-0.43,-0.61,-0.37
167.965,0.001226,0.414603,-0.363,0.886,0.37,-0.43,-0.61,-0.37
167.97,-0.001022,-0.021539,-0.364,0.885,0.371,-0.61,-0.73,-0.37
167.975,3.140831,-0.016717,-0.364,0.885,0.371,-0.61,-0.73,-0.37
167.98,0.358282,2.413477,-0.364,0.886,0.371,-0.73,-0.98,-0.43
167.985,-0.00564,0.316511,-0.364,0.886,0.371,-0.73,-0.98,-0.43
167.99,-0.006989,-0.009605,-0.365,0.887,0.374,-0.91,-0.85,-0.43
167.995,7.694926,-0.009155,-0.365,0.887,0.374,-0.91,-0.85,-0.43
168.0,3.693581,2.459581,-0.364,0.887,0.373,-0.91,-0.98,-0.37
168.005,-0.008583,0.282097,-0.364,0.887,0.373,-0.91,-0.98,-0.37
168.01,-0.012997,-0.020436,-0.363,0.885,0.375,-0.67,-0.85,-0.43
168.015,62.713379,-0.014101,-0.363,0.885,0.375,-0.67,-0.85,-0.43
168.02,13.443947,1.898902,-0.365,0.885,0.374,-0.37,-0.73,-0.3
168.025,0.002371,0.297056,-0.365,0.885,0.374,-0.37,-0.73,-0.3
168.03,-0.000777,-0.009237,-0.364,0.886,0.371,-0.12,-0.67,-0.18
168.035,59.496201,-0.007888,-0.364,0.886,0.371,-0.12,-0.67,-0.18
168.04,24.036924,2.000019,-0.363,0.886,0.374,-0.18,-0.55,-0.18
168.045,-0.010831,8.192989,-0.363,0.886,0.374,-0.18,-0.55,-0.18
168.05,-0.009033,0.000245,-0.363,0.886,0.372,-0.18,-0.61,-0.3
168.055,5.748041,-0.009482,-0.363,0.886,0.372,-0.18,-0.61,-0.3
168.06,62.096626,0.352069,-0.363,0.888,0.371,-0.18,-0.61,-0.3
168.065,-0.01218,1.770891,-0.363,0.888,0.371,-0.18,-0.61,-0.3
168.07,-0.009809,-0.007234,-0.365,0.887,0.372,-0.18,-0.55,-0.24
168.075,3.620339,-0.004496,-0.365,0.887,0.372,-0.18,-0.55,-0.24
168.08,59.564785,0.793403,-0.364,0.887,0.37,-0.18,-0.49,-0.3
168.085,-0.009727,-28.545694,-0.364,0.887,0.37,-0.18,-0.49,-0.3
168.09,-0.008133,-0.002493,-0.364,0.886,0.374,-0.3,-0.43,-0.3
168.095,0.158828,-0.010831,-0.364,0.886,0.374,-0.3,-0.43,-0.3
168.1,37.058178,0.145503,-0.364,0.884,0.375,-0.24,-0.43,-0.3
168.105,-0.00564,2.954129,-0.364,0.884,0.375,-0.24,-0.43,-0.3
168.11,-0.008133,-0.016798,-0.363,0.885,0.375,-0.12,-0.43,-0.3
168.115,0.150245,-0.016022,-0.363,0.885,0.375,-0.12,-0.43,-0.3
168.12,39.030975,0.541142,-0.364,0.885,0.371,-0.12,-0.43,-0.3
